# XDI/1.0 BlueSky/1.10.0 BMM/2023-1.0-py310-tiled
# Beamline.name: BMM (06BM) -- Beamline for Materials Measurement (NIST)
# Beamline.xray_source: NSLS-II three-pole wiggler
# Beamline.collimation: paraboloid mirror, 5 nm Rh on 30 nm Pt
# Beamline.focusing: not in use
# Beamline.harmonic_rejection: flat mirror, Pt stripe, pitch = 7.0 mrad relative to beam
# Beamline.software: Bluesky 1.10.0, Ophyd 1.7.0, DataBroker 2.0.0b13, Python 3.10.8, 2023-1.0-py310-tiled
# Detector.I0: 10 cm N2
# Detector.I1: 25 cm N2
# Detector.I2: 25 cm N2
# Element.symbol: Dy
# Element.edge: L1
# Element.reference: Dy
# Element.reference_material: Dy2O3
# Facility.name: NSLS-II
# Facility.energy: 3.0
# Facility.current: 400.5
# Facility.mode: top-off
# Facility.GUP: 123456
# Facility.SAF: 301027
# Facility.cycle: 2023-2
# Mono.name: Si(111)
# Mono.d_spacing: 3.1351860
# Mono.encoder_resolution: 0.0000050 deg/ct
# Mono.angle_offset: 16.0754326 deg
# Mono.scan_mode: pseudo channel cut
# Mono.scan_type: step
# Mono.direction: forward in energy
# Sample.name: Dy2TiO5
# Sample.prep: Powder in PEG pellet
# Sample.x: 149.848 mm
# Sample.y: 114.690 mm
# Sample.SDD_position: 205.000 mm
# Scan.experimenters: Bruce Ravel
# Scan.edge_energy: 9045.8
# Scan.start_time: 2023-05-08T22:08:22
# Scan.end_time: 2023-05-08T22:14:16
# Scan.transient_id: 75661
# Scan.uid: b6a63314-fa7a-4740-850c-fed1dcc4f594
# Scan.plot_hint: ln(I0/It)  --  ln($5/$6)
# Column.1: energy eV
# Column.2: requested_energy eV
# Column.3: measurement_time seconds
# Column.4: xmu 
# Column.5: I0 nA
# Column.6: It nA
# Column.7: Ir nA
# ///////////
# sample courtesy Martin Stennett, University of Sheffield
# -----------
# energy  requested_energy  measurement_time  xmu  I0  It  Ir
  8845.835  8845.800  0.500  1.486755  121.770617  27.532966  2.869866
  8855.820  8855.800  0.500  1.481615  121.562668  27.627579  2.896154
  8865.873  8865.800  0.500  1.476504  121.354875  27.721686  2.925143
  8875.833  8875.800  0.500  1.471657  121.138759  27.806784  2.953573
  8885.864  8885.800  0.500  1.466889  120.937748  27.893325  2.974260
  8895.840  8895.800  0.500  1.462121  120.704422  27.972548  2.993977
  8905.829  8905.800  0.500  1.457286  120.458600  28.050875  3.019833
  8915.820  8915.800  0.500  1.452373  120.164237  28.120139  3.043783
  8925.828  8925.800  0.500  1.447723  120.174444  28.253619  3.072764
  8935.827  8935.800  0.500  1.443620  119.672278  28.251221  3.085395
  8945.936  8945.800  0.500  1.439297  119.829807  28.410986  3.116675
  8955.778  8955.800  0.500  1.434443  119.586545  28.491255  3.136181
  8965.764  8965.800  0.500  1.429732  119.089571  28.506840  3.148848
  8975.772  8975.800  0.500  1.424910  119.129691  28.654284  3.179934
  8985.769  8985.800  0.500  1.420399  118.839435  28.713708  3.202167
  8995.778  8995.800  0.500  1.416471  118.608951  28.770809  3.224658
  9005.789  9005.800  0.500  1.412100  118.403318  28.846733  3.248841
  9015.784  9015.800  0.500  1.408370  118.169696  28.897406  3.270757
  9017.780  9017.800  0.500  1.407437  118.084693  28.903581  3.274673
  9019.769  9019.800  0.500  1.406584  117.615321  28.813262  3.266830
  9021.767  9021.800  0.500  1.405970  117.557852  28.816850  3.268609
  9023.768  9023.800  0.500  1.405394  118.040229  28.951781  3.286593
  9025.767  9025.800  0.500  1.404551  117.974522  28.960067  3.289425
  9027.764  9027.800  0.500  1.403850  117.924942  28.968203  3.291553
  9029.779  9029.800  0.500  1.403186  117.871209  28.974210  3.293279
  9031.770  9031.800  0.500  1.402744  117.817640  28.973869  3.293675
  9033.773  9033.800  0.500  1.402232  117.766462  28.976105  3.294547
  9035.773  9035.800  0.500  1.401894  117.712898  28.972718  3.293058
  9036.276  9036.300  0.500  1.402071  117.699956  28.964415  3.292316
  9036.775  9036.800  0.500  1.401901  117.671570  28.962341  3.292045
  9037.268  9037.300  0.500  1.401773  117.662687  28.963855  3.291267
  9037.767  9037.800  0.500  1.401917  117.644451  28.955202  3.290227
  9038.270  9038.300  0.500  1.401917  117.626036  28.950658  3.289048
  9038.770  9038.800  0.500  1.401804  117.618469  28.952069  3.288966
  9039.273  9039.300  0.500  1.401889  117.592588  28.943251  3.287569
  9039.776  9039.800  0.500  1.401845  117.554796  28.935208  3.284929
  9040.283  9040.300  0.500  1.402082  117.479110  28.909736  3.282035
  9040.772  9040.800  0.500  1.402138  117.030555  28.797739  3.269192
  9041.279  9041.300  0.500  1.402315  116.461824  28.652721  3.250831
  9041.783  9041.800  0.500  1.402348  116.208105  28.589366  3.242223
  9042.283  9042.300  0.500  1.402697  116.533166  28.659314  3.249077
  9042.779  9042.800  0.500  1.403002  117.185797  28.811049  3.265218
  9043.286  9043.300  0.500  1.403103  117.361294  28.851273  3.268061
  9043.783  9043.800  0.500  1.403433  117.384208  28.847391  3.266271
  9044.283  9044.300  0.500  1.403831  117.403684  28.840701  3.264044
  9044.787  9044.800  0.500  1.404168  117.389392  28.827457  3.259949
  9045.280  9045.300  0.500  1.404758  117.394204  28.811632  3.254106
  9045.784  9045.800  0.500  1.405572  117.371018  28.782509  3.247226
  9046.284  9046.300  0.500  1.406632  117.376010  28.753246  3.239661
  9046.792  9046.800  0.500  1.407608  117.363209  28.722070  3.230714
  9047.296  9047.300  0.500  1.408898  117.353178  28.682590  3.219555
  9047.804  9047.800  0.500  1.410568  117.342228  28.632038  3.205345
  9048.290  9048.300  0.500  1.412514  117.318681  28.570658  3.189490
  9048.794  9048.800  0.500  1.414878  117.310918  28.501310  3.171333
  9049.292  9049.300  0.500  1.417426  117.300016  28.426132  3.151060
  9049.793  9049.800  0.500  1.420010  117.285592  28.349285  3.131157
  9050.290  9050.300  0.500  1.422789  117.273692  28.267759  3.111226
  9050.791  9050.800  0.500  1.425443  117.257276  28.188871  3.091314
  9051.292  9051.300  0.500  1.428187  117.246681  28.109101  3.072430
  9051.786  9051.800  0.500  1.430877  117.231020  28.029834  3.052691
  9052.291  9052.300  0.500  1.433556  117.218310  27.951813  3.034222
  9052.799  9052.800  0.500  1.436201  117.204752  27.874760  3.015996
  9053.300  9053.300  0.500  1.438937  117.190372  27.795193  2.996487
  9053.801  9053.800  0.500  1.441789  117.173444  27.712014  2.978506
  9054.299  9054.300  0.500  1.444590  117.169744  27.633633  2.960248
  9054.793  9054.800  0.500  1.447670  117.146907  27.543295  2.940342
  9055.288  9055.300  0.500  1.450967  117.143253  27.451771  2.920260
  9055.786  9055.800  0.500  1.454481  117.126567  27.351565  2.897434
  9056.291  9056.300  0.500  1.458160  117.114430  27.248315  2.874304
  9056.789  9056.800  0.500  1.461765  117.101578  27.147279  2.852128
  9057.287  9057.300  0.500  1.465679  117.089128  27.038358  2.827624
  9057.792  9057.800  0.500  1.469628  117.076980  26.929010  2.802763
  9058.294  9058.300  0.500  1.473950  117.067012  26.810586  2.775973
  9058.800  9058.800  0.500  1.478447  117.053249  26.687154  2.747830
  9059.302  9059.300  0.500  1.483142  117.040570  26.559260  2.718166
  9059.800  9059.800  0.500  1.487726  117.020618  26.433289  2.687901
  9060.295  9060.300  0.500  1.492423  117.009971  26.307036  2.658974
  9060.797  9060.800  0.500  1.496736  116.987518  26.188786  2.631014
  9061.285  9061.300  0.500  1.500708  116.967523  26.080499  2.606541
  9061.791  9061.800  0.500  1.504434  116.943106  25.978080  2.583906
  9062.293  9062.300  0.500  1.507657  116.781745  25.858761  2.561171
  9062.792  9062.800  0.500  1.510215  116.227731  25.670348  2.535378
  9063.294  9063.300  0.500  1.512098  115.772312  25.521664  2.514849
  9063.804  9063.800  0.500  1.513247  115.695565  25.475446  2.509323
  9064.303  9064.300  0.500  1.513634  116.201541  25.576964  2.518429
  9064.802  9064.800  0.500  1.513590  116.669586  25.681121  2.530165
  9065.297  9065.300  0.500  1.513169  116.788523  25.718120  2.536903
  9065.800  9065.800  0.500  1.512325  116.802950  25.743010  2.542041
  9066.302  9066.300  0.500  1.511662  116.808997  25.761433  2.546926
  9066.788  9066.800  0.500  1.510831  116.807828  25.782570  2.551146
  9067.297  9067.300  0.500  1.509965  116.797613  25.802672  2.554246
  9067.793  9067.800  0.500  1.509090  116.785238  25.822500  2.556342
  9068.300  9068.300  0.500  1.508299  116.773788  25.840409  2.558534
  9068.799  9068.800  0.500  1.507948  116.764192  25.847361  2.558114
  9069.306  9069.300  0.500  1.507270  116.748651  25.861457  2.559018
  9069.802  9069.800  0.500  1.506550  116.741279  25.878434  2.558710
  9070.308  9070.300  0.500  1.506009  116.727901  25.889489  2.558680
  9070.805  9070.800  0.500  1.505061  116.716465  25.911504  2.560021
  9071.793  9071.790  0.500  1.503306  116.691971  25.951552  2.562566
  9072.797  9072.790  0.500  1.501301  116.670519  25.998868  2.568384
  9073.818  9073.810  0.500  1.499167  116.645794  26.048875  2.575551
  9074.886  9074.860  0.500  1.497247  116.622304  26.093681  2.585530
  9075.943  9075.920  0.500  1.495166  116.593291  26.141553  2.598816
  9077.011  9077.000  0.500  1.492784  116.557376  26.195806  2.614849
  9078.101  9078.100  0.500  1.490093  116.542721  26.263093  2.635206
  9079.230  9079.220  0.500  1.486855  116.505222  26.339798  2.655973
  9080.380  9080.360  0.500  1.483283  116.188908  26.362283  2.673598
  9081.520  9081.510  0.500  1.479625  115.193964  26.232310  2.675163
  9082.700  9082.690  0.500  1.476390  116.677759  26.656322  2.731111
  9083.887  9083.880  0.500  1.473382  116.845791  26.775111  2.754306
  9085.114  9085.100  0.500  1.470784  116.840916  26.843660  2.772125
  9086.340  9086.330  0.500  1.468887  116.820157  26.889838  2.785059
  9087.589  9087.580  0.500  1.467141  116.795852  26.931234  2.794110
  9088.863  9088.850  0.500  1.466024  116.764869  26.954170  2.800679
  9090.144  9090.140  0.500  1.465244  116.746341  26.970930  2.805258
  9091.465  9091.450  0.500  1.464638  116.709643  26.978806  2.808295
  9092.796  9092.780  0.500  1.464360  116.684014  26.980358  2.809597
  9094.132  9094.130  0.500  1.464532  116.643436  26.966353  2.808447
  9095.504  9095.500  0.500  1.464845  116.613723  26.951041  2.805633
  9096.887  9096.880  0.500  1.465821  116.583560  26.917787  2.801214
  9098.299  9098.290  0.500  1.466577  116.544577  26.888438  2.797196
  9099.711  9099.710  0.500  1.467434  116.519986  26.859743  2.792938
  9101.156  9101.150  0.500  1.468197  116.474077  26.828691  2.788042
  9102.623  9102.610  0.500  1.469128  116.354055  26.776100  2.781055
  9104.101  9104.090  0.500  1.469746  115.141379  26.480654  2.747184
  9105.598  9105.590  0.500  1.470398  116.235096  26.714764  2.768165
  9107.134  9107.110  0.500  1.471055  116.280701  26.707700  2.763809
  9108.674  9108.650  0.500  1.471466  116.262775  26.692626  2.758656
  9110.226  9110.210  0.500  1.471788  116.224065  26.675133  2.752224
  9111.789  9111.780  0.500  1.472250  116.188281  26.654598  2.745037
  9113.398  9113.380  0.500  1.472503  116.143053  26.637482  2.738360
  9114.995  9114.990  0.500  1.472392  116.102995  26.631254  2.732316
  9116.638  9116.630  0.500  1.471924  116.071849  26.636578  2.730020
  9118.289  9118.280  0.500  1.471016  116.025026  26.650032  2.729818
  9119.966  9119.950  0.500  1.469788  115.973592  26.670943  2.732302
  9121.639  9121.640  0.500  1.468359  115.929604  26.698946  2.737304
  9123.361  9123.350  0.500  1.466796  115.885473  26.730540  2.743640
  9125.097  9125.080  0.500  1.465102  115.834388  26.764051  2.753532
  9126.837  9126.830  0.500  1.463559  115.786379  26.794278  2.764928
  9128.603  9128.590  0.500  1.461835  115.736158  26.828851  2.777683
  9130.384  9130.380  0.500  1.460488  115.683621  26.852828  2.789330
  9132.191  9132.180  0.500  1.459127  115.631560  26.877290  2.800690
  9134.032  9134.010  0.500  1.457876  115.580783  26.899115  2.808768
  9135.865  9135.850  0.500  1.456867  115.525467  26.913393  2.815316
  9137.718  9137.710  0.500  1.455868  115.466435  26.926534  2.819262
  9139.600  9139.590  0.500  1.454732  115.386572  26.938486  2.822865
  9141.501  9141.490  0.500  1.453509  115.250343  26.939598  2.825352
  9143.417  9143.410  0.500  1.452269  114.395881  26.773050  2.808818
  9145.366  9145.350  0.500  1.451212  114.216477  26.759344  2.807529
  9147.320  9147.310  0.500  1.450189  115.365019  27.056089  2.841025
  9149.292  9149.280  0.500  1.449075  115.271333  27.064264  2.846057
  9151.295  9151.280  0.500  1.447856  115.183330  27.076589  2.851796
  9153.291  9153.290  0.500  1.446649  115.080701  27.085133  2.857814
  9155.339  9155.320  0.500  1.445408  114.860083  27.066778  2.861584
  9157.394  9157.380  0.500  1.444171  111.380580  26.279306  2.783641
  9159.462  9159.450  0.500  1.442957  115.061123  27.180694  2.883831
  9161.556  9161.540  0.500  1.441783  114.975288  27.192297  2.891610
  9163.650  9163.650  0.500  1.440899  114.872046  27.191910  2.896590
  9165.797  9165.780  0.500  1.439935  114.700500  27.177491  2.899206
  9167.941  9167.920  0.500  1.439161  112.214905  26.609130  2.843849
  9170.100  9170.090  0.500  1.438837  114.785348  27.227487  2.912032
  9172.300  9172.280  0.500  1.438392  114.743990  27.229773  2.913732
  9174.483  9174.480  0.500  1.438189  114.658790  27.215079  2.912748
  9176.722  9176.700  0.500  1.437839  114.565398  27.202441  2.911438
  9178.969  9178.950  0.500  1.437301  114.426236  27.184021  2.909256
  9181.221  9181.210  0.500  1.436615  113.551538  26.994737  2.887908
  9183.514  9183.490  0.500  1.435936  114.152040  27.155938  2.902124
  9185.808  9185.790  0.500  1.435171  114.478260  27.254384  2.911782
  9188.115  9188.110  0.500  1.434224  114.373265  27.255173  2.913780
  9190.455  9190.450  0.500  1.433138  114.285789  27.263925  2.917571
  9192.814  9192.800  0.500  1.431865  114.203051  27.278878  2.922186
  9195.194  9195.180  0.500  1.430495  114.126249  27.297924  2.927250
  9197.588  9197.570  0.500  1.428891  114.034406  27.319725  2.932136
  9200.018  9199.990  0.500  1.427504  113.950071  27.337428  2.937152
  9202.441  9202.420  0.500  1.426039  113.886663  27.362255  2.943587
  9204.898  9204.870  0.500  1.424243  113.813386  27.393802  2.951555
  9207.367  9207.350  0.500  1.422769  113.740177  27.416583  2.961246
  9209.864  9209.840  0.500  1.421451  113.687164  27.439931  2.970098
  9212.373  9212.350  0.500  1.420067  113.613108  27.460044  2.980184
  9214.894  9214.870  0.500  1.418852  113.553348  27.478974  2.989157
  9217.428  9217.420  0.500  1.417668  113.482328  27.494301  2.995892
  9220.010  9219.990  0.500  1.416544  113.421047  27.510375  3.003106
  9222.584  9222.570  0.500  1.415446  113.360333  27.525850  3.007391
  9225.202  9225.180  0.500  1.414166  113.282993  27.542297  3.010574
  9227.808  9227.800  0.500  1.413083  113.211805  27.554815  3.013179
  9230.477  9230.450  0.500  1.411979  113.153787  27.571113  3.017158
  9233.119  9233.110  0.500  1.410772  113.086249  27.587935  3.021429
  9235.817  9235.790  0.500  1.409503  113.020046  27.606806  3.026310
  9238.514  9238.490  0.500  1.408528  112.949924  27.616586  3.030699
  9241.237  9241.210  0.500  1.407207  112.866815  27.632736  3.036708
  9243.966  9243.950  0.500  1.406076  112.806398  27.649208  3.043550
  9246.719  9246.700  0.500  1.404831  112.740077  27.667387  3.050569
  9249.496  9249.480  0.500  1.403557  112.666261  27.684516  3.057500
  9252.293  9252.270  0.500  1.402245  112.596457  27.703684  3.064241
  9255.106  9255.090  0.500  1.401046  112.524997  27.719319  3.072528
  9257.951  9257.920  0.500  1.399561  112.444763  27.740701  3.080139
  9260.782  9260.770  0.500  1.398488  112.367600  27.751434  3.087048
  9263.667  9263.650  0.500  1.397301  112.302397  27.768268  3.092775
  9266.554  9266.540  0.500  1.396191  112.221438  27.779067  3.097388
  9269.473  9269.450  0.500  1.395080  112.153546  27.793130  3.101863
  9272.393  9272.370  0.500  1.393910  112.079567  27.807301  3.107417
  9275.360  9275.320  0.500  1.392640  111.491652  27.696596  3.097207
  9278.295  9278.290  0.500  1.391327  111.963200  27.850285  3.116919
  9281.303  9281.270  0.500  1.389915  111.866753  27.865618  3.120324
  9284.302  9284.280  0.500  1.388699  111.774806  27.876592  3.124800
  9287.317  9287.300  0.500  1.387416  111.692059  27.891709  3.129327
  9290.372  9290.350  0.500  1.386054  111.580911  27.901922  3.135088
  9293.444  9293.410  0.500  1.384707  111.216481  27.848278  3.133230
  9296.510  9296.490  0.500  1.383247  111.395953  27.933973  3.146559
  9299.608  9299.590  0.500  1.381806  108.035308  27.130321  3.061099
  9302.738  9302.710  0.500  1.380400  111.359819  28.004544  3.164038
  9305.871  9305.850  0.500  1.378925  110.914511  27.933726  3.160806
  9309.027  9309.000  0.500  1.377191  111.219912  28.059249  3.180538
  9312.202  9312.180  0.500  1.375709  111.124245  28.076692  3.189125
  9315.393  9315.370  0.500  1.374289  111.030069  28.092774  3.196979
  9318.609  9318.590  0.500  1.372869  110.938174  28.109411  3.204366
  9321.838  9321.820  0.500  1.371364  110.822993  28.122512  3.212040
  9325.085  9325.070  0.500  1.370124  110.684278  28.122170  3.217584
  9328.372  9328.350  0.500  1.368568  110.706625  28.171634  3.228276
  9331.657  9331.640  0.500  1.367130  110.635681  28.194086  3.236974
  9334.978  9334.950  0.500  1.365743  110.549359  28.211213  3.244506
  9338.291  9338.270  0.500  1.364179  110.443473  28.228307  3.249751
  9341.644  9341.620  0.500  1.362664  110.347938  28.246636  3.256467
  9345.006  9344.990  0.500  1.361186  110.253300  28.264164  3.263046
  9348.386  9348.370  0.500  1.359632  110.165211  28.285492  3.269475
  9351.807  9351.780  0.500  1.358091  110.068631  28.304271  3.277807
  9355.215  9355.200  0.500  1.356821  109.988196  28.319547  3.285540
  9358.667  9358.650  0.500  1.355306  109.884155  28.335635  3.292800
  9362.129  9362.110  0.500  1.353760  109.804008  28.358787  3.301382
  9365.616  9365.590  0.500  1.352201  109.712327  28.379332  3.309602
  9369.110  9369.090  0.500  1.350521  109.612392  28.401141  3.317507
  9372.630  9372.610  0.500  1.349087  109.505747  28.414235  3.325019
  9376.167  9376.150  0.500  1.347555  109.414127  28.433972  3.331960
  9379.714  9379.700  0.500  1.346116  109.336977  28.454862  3.337522
  9383.295  9383.280  0.500  1.344743  109.239062  28.468442  3.344053
  9386.897  9386.880  0.500  1.343185  109.144460  28.488113  3.350935
  9390.510  9390.490  0.500  1.341601  109.058908  28.510925  3.358533
  9394.130  9394.120  0.500  1.340098  108.967432  28.529848  3.365445
  9397.809  9397.780  0.500  1.338503  108.863546  28.548141  3.373206
  9401.461  9401.450  0.500  1.336850  108.771337  28.571156  3.382018
  9405.162  9405.140  0.500  1.335389  108.683372  28.589784  3.390053
  9408.866  9408.850  0.500  1.333850  108.578547  28.606224  3.396291
  9412.592  9412.580  0.500  1.332003  108.483177  28.633920  3.405244
  9416.332  9416.320  0.500  1.330481  108.391915  28.653401  3.412493
  9420.106  9420.090  0.500  1.328688  108.295353  28.679264  3.421105
  9423.898  9423.880  0.500  1.327146  108.191189  28.695880  3.428982
  9427.698  9427.680  0.500  1.325345  108.096226  28.722400  3.438891
  9431.523  9431.510  0.500  1.323894  108.008983  28.740866  3.447540
  9435.367  9435.350  0.500  1.322076  107.865897  28.755026  3.455756
  9439.230  9439.210  0.500  1.320493  107.768353  28.774534  3.466264
  9443.104  9443.090  0.500  1.318726  107.687663  28.803860  3.475684
  9447.015  9446.990  0.500  1.317228  107.585776  28.819745  3.484082
  9450.926  9450.910  0.500  1.315590  107.489144  28.841051  3.493234
  9454.864  9454.850  0.500  1.314092  107.397506  28.859677  3.502790
  9458.824  9458.810  0.500  1.312433  107.283224  28.876814  3.511875
  9462.803  9462.780  0.500  1.310529  107.181064  28.904298  3.520755
  9466.801  9466.780  0.500  1.308940  107.083807  28.924000  3.529814
  9470.798  9470.790  0.500  1.307122  106.984519  28.949781  3.538984
  9474.849  9474.830  0.500  1.305526  106.880676  28.967876  3.547604
  9478.896  9478.880  0.500  1.304039  106.773765  28.981942  3.555985
  9482.974  9482.950  0.500  1.302304  106.669168  29.003827  3.564347
  9487.052  9487.040  0.500  1.300507  106.566366  29.028010  3.572374
  9491.175  9491.150  0.500  1.298758  106.455956  29.048678  3.579827
  9495.291  9495.280  0.500  1.297000  106.359475  29.073419  3.588226
  9499.438  9499.430  0.500  1.295294  106.244195  29.091503  3.596046
  9503.612  9503.590  0.500  1.293587  106.144745  29.113933  3.605503
  9507.793  9507.780  0.500  1.291764  106.040263  29.138342  3.614734
  9511.994  9511.980  0.500  1.290037  105.919346  29.155431  3.624255
  9516.234  9516.210  0.500  1.288148  105.813219  29.181269  3.633879
  9520.462  9520.450  0.500  1.286404  105.712451  29.204388  3.645020
  9524.737  9524.710  0.500  1.284556  105.605689  29.228838  3.654927
  9529.012  9528.990  0.500  1.282767  105.491040  29.249401  3.664259
  9533.307  9533.290  0.500  1.281135  105.373266  29.264476  3.673613
  9537.633  9537.610  0.500  1.279359  105.278449  29.290115  3.684708
  9541.963  9541.950  0.500  1.277452  105.166723  29.314879  3.695575
  9546.325  9546.310  0.500  1.275933  105.059090  29.329382  3.704104
  9550.714  9550.690  0.500  1.274234  104.939962  29.345938  3.713533
  9555.104  9555.080  0.500  1.272443  104.831903  29.368276  3.723779
  9559.529  9559.500  0.500  1.270606  104.720289  29.390947  3.733853
  9563.955  9563.930  0.500  1.268769  104.604883  29.412531  3.742679
  9568.408  9568.380  0.500  1.266962  104.481195  29.430894  3.752494
  9572.870  9572.850  0.500  1.265132  104.378338  29.455781  3.761330
  9577.363  9577.340  0.500  1.263187  104.271997  29.483065  3.771356
  9581.873  9581.850  0.500  1.261151  104.147593  29.507905  3.781181
  9586.395  9586.380  0.500  1.259341  104.009635  29.522209  3.789356
  9590.953  9590.930  0.500  1.257395  104.297468  29.661560  3.815247
