# XDI/1.0 BlueSky/1.10.0 BMM/2023-1.0-py310-tiled
# Beamline.name: BMM (06BM) -- Beamline for Materials Measurement (NIST)
# Beamline.xray_source: NSLS-II three-pole wiggler
# Beamline.collimation: paraboloid mirror, 5 nm Rh on 30 nm Pt
# Beamline.focusing: not in use
# Beamline.harmonic_rejection: flat mirror, Pt stripe, pitch = 7.0 mrad relative to beam
# Beamline.software: Bluesky 1.10.0, Ophyd 1.7.0, DataBroker 2.0.0b13, Python 3.10.8, 2023-1.0-py310-tiled
# Detector.I0: 10 cm N2
# Detector.I1: 25 cm N2
# Detector.I2: 25 cm N2
# Element.symbol: Dy
# Element.edge: L1
# Element.reference: Dy
# Element.reference_material: Dy2O3
# Facility.name: NSLS-II
# Facility.energy: 3.0
# Facility.current: 400.7
# Facility.mode: top-off
# Facility.GUP: 123456
# Facility.SAF: 301027
# Facility.cycle: 2023-2
# Mono.name: Si(111)
# Mono.d_spacing: 3.1351860
# Mono.encoder_resolution: 0.0000050 deg/ct
# Mono.angle_offset: 16.0754326 deg
# Mono.scan_mode: pseudo channel cut
# Mono.scan_type: step
# Mono.direction: forward in energy
# Sample.name: Dy2Ti2O7
# Sample.prep: Powder in PEG pellet
# Sample.x: 149.848 mm
# Sample.y: 114.690 mm
# Sample.SDD_position: 205.000 mm
# Scan.experimenters: Bruce Ravel
# Scan.edge_energy: 9045.8
# Scan.start_time: 2023-05-08T22:14:58
# Scan.end_time: 2023-05-08T22:20:49
# Scan.transient_id: 75666
# Scan.uid: 3c126c66-3572-47d8-a65e-aebd7969abe2
# Scan.plot_hint: ln(I0/It)  --  ln($5/$6)
# Column.1: energy eV
# Column.2: requested_energy eV
# Column.3: measurement_time seconds
# Column.4: xmu 
# Column.5: I0 nA
# Column.6: It nA
# Column.7: Ir nA
# ///////////
# sample courtesy Martin Stennett, University of Sheffield
# -----------
# energy  requested_energy  measurement_time  xmu  I0  It  Ir
  8845.801  8845.800  0.500  2.138396  121.897566  14.364855  1.484902
  8855.844  8855.800  0.500  2.130910  121.688167  14.447932  1.501818
  8865.852  8865.800  0.500  2.122279  121.467713  14.546776  1.522122
  8875.874  8875.800  0.500  2.113809  121.255364  14.644870  1.542438
  8885.868  8885.800  0.500  2.108337  121.034953  14.698449  1.554078
  8895.867  8895.800  0.500  2.102870  120.806089  14.751082  1.565897
  8905.836  8905.800  0.500  2.095332  120.550355  14.831233  1.583484
  8915.851  8915.800  0.500  2.087810  120.264704  14.907808  1.601084
  8925.831  8925.800  0.500  2.081944  120.231273  14.991345  1.616864
  8935.838  8935.800  0.500  2.076129  119.744454  15.017715  1.625840
  8945.819  8945.800  0.500  2.070002  119.771079  15.113376  1.644867
  8955.816  8955.800  0.500  2.064717  119.512874  15.160709  1.656324
  8965.816  8965.800  0.500  2.059372  119.023884  15.179600  1.663879
  8975.814  8975.800  0.500  2.053389  119.066636  15.276172  1.682251
  8985.818  8985.800  0.500  2.046722  118.774385  15.340615  1.697959
  8995.820  8995.800  0.500  2.039900  118.556921  15.417351  1.715270
  9005.813  9005.800  0.500  2.033253  118.347463  15.492743  1.731635
  9015.851  9015.800  0.500  2.026742  117.596713  15.495032  1.740188
  9017.766  9017.800  0.500  2.025845  118.021774  15.564991  1.749947
  9019.769  9019.800  0.500  2.024711  117.583799  15.524817  1.746512
  9021.770  9021.800  0.500  2.023679  117.456471  15.524019  1.747767
  9024.021  9023.800  0.500  2.022908  117.967180  15.603543  1.757587
  9025.760  9025.800  0.500  2.022260  117.902612  15.605122  1.759402
  9027.820  9027.800  0.500  2.021625  117.834980  15.606081  1.759702
  9029.800  9029.800  0.500  2.021039  117.791615  15.609481  1.760288
  9031.784  9031.800  0.500  2.020764  117.741152  15.607077  1.760765
  9033.787  9033.800  0.500  2.020519  117.692887  15.604506  1.760435
  9035.794  9035.800  0.500  2.020385  117.638200  15.599347  1.759483
  9036.276  9036.300  0.500  2.020531  117.624770  15.595288  1.758399
  9036.775  9036.800  0.500  2.020587  117.596515  15.590667  1.758418
  9037.275  9037.300  0.500  2.020610  117.587466  15.589114  1.757960
  9037.774  9037.800  0.500  2.020617  117.571537  15.586885  1.757384
  9038.270  9038.300  0.500  2.020903  117.553194  15.579991  1.756434
  9038.773  9038.800  0.500  2.021184  117.534499  15.573138  1.755609
  9039.269  9039.300  0.500  2.021202  117.518176  15.570708  1.754584
  9039.776  9039.800  0.500  2.021471  117.497613  15.563784  1.753910
  9040.286  9040.300  0.500  2.021575  117.413597  15.551038  1.751790
  9040.779  9040.800  0.500  2.022112  116.988542  15.486429  1.744086
  9041.283  9041.300  0.500  2.022434  116.407756  15.404590  1.733746
  9041.786  9041.800  0.500  2.022822  116.137983  15.362916  1.729060
  9042.283  9042.300  0.500  2.023193  116.435303  15.396542  1.731993
  9042.793  9042.800  0.500  2.023595  117.119319  15.480766  1.740655
  9043.286  9043.300  0.500  2.024190  117.297990  15.495165  1.741776
  9043.790  9043.800  0.500  2.024806  117.324864  15.489161  1.740206
  9044.279  9044.300  0.500  2.025520  117.333059  15.479187  1.737990
  9044.783  9044.800  0.500  2.026320  117.331728  15.466635  1.735616
  9045.287  9045.300  0.500  2.027321  117.323934  15.450141  1.731987
  9045.787  9045.800  0.500  2.028684  117.304461  15.426535  1.726883
  9046.284  9046.300  0.500  2.030407  117.301461  15.399576  1.721600
  9046.785  9046.800  0.500  2.032538  117.295033  15.365960  1.714926
  9047.289  9047.300  0.500  2.035011  117.277384  15.325697  1.706546
  9047.793  9047.800  0.500  2.037944  117.261230  15.278710  1.697010
  9048.294  9048.300  0.500  2.041582  117.240156  15.220495  1.685608
  9048.798  9048.800  0.500  2.045693  117.231291  15.156904  1.672885
  9049.292  9049.300  0.500  2.050158  117.225889  15.088674  1.659830
  9049.793  9049.800  0.500  2.054717  117.204501  15.017299  1.645678
  9050.297  9050.300  0.500  2.059042  117.189163  14.950537  1.632574
  9050.798  9050.800  0.500  2.063142  117.173806  14.887423  1.619685
  9051.292  9051.300  0.500  2.067286  117.165671  14.824826  1.607405
  9051.786  9051.800  0.500  2.071420  117.157933  14.762694  1.595227
  9052.287  9052.300  0.500  2.075339  117.141456  14.702884  1.582965
  9052.795  9052.800  0.500  2.079641  117.121198  14.637232  1.570393
  9053.300  9053.300  0.500  2.083642  117.105362  14.576812  1.559159
  9053.791  9053.800  0.500  2.087758  117.095192  14.515680  1.547520
  9054.289  9054.300  0.500  2.091678  117.078124  14.456780  1.536022
  9054.797  9054.800  0.500  2.095984  117.067440  14.393355  1.523376
  9055.302  9055.300  0.500  2.100524  117.055191  14.326658  1.511404
  9055.807  9055.800  0.500  2.105329  117.050020  14.257345  1.497754
  9056.298  9056.300  0.500  2.110315  117.028906  14.183882  1.483588
  9056.796  9056.800  0.500  2.115529  117.014210  14.108346  1.469863
  9057.294  9057.300  0.500  2.121188  117.005608  14.027695  1.454825
  9057.800  9057.800  0.500  2.127067  116.996277  13.944366  1.438606
  9058.298  9058.300  0.500  2.133383  116.978551  13.854463  1.422054
  9058.800  9058.800  0.500  2.140468  116.972212  13.755903  1.404182
  9059.287  9059.300  0.500  2.147874  116.952119  13.652068  1.384808
  9059.793  9059.800  0.500  2.155700  116.929801  13.543057  1.364952
  9060.298  9060.300  0.500  2.163267  116.921670  13.440024  1.346121
  9060.801  9060.800  0.500  2.170657  116.907453  13.339446  1.328510
  9061.292  9061.300  0.500  2.177318  116.888117  13.248692  1.312001
  9061.798  9061.800  0.500  2.183416  116.846272  13.163439  1.296810
  9062.297  9062.300  0.500  2.188417  116.700703  13.081450  1.283651
  9062.806  9062.800  0.500  2.192348  116.155119  12.969221  1.268118
  9063.312  9063.300  0.500  2.194524  115.685457  12.888694  1.257786
  9063.807  9063.800  0.500  2.195550  115.581650  12.863926  1.254214
  9064.299  9064.300  0.500  2.195689  116.079658  12.917566  1.259646
  9064.794  9064.800  0.500  2.195032  116.556625  12.979164  1.266401
  9065.301  9065.300  0.500  2.193675  116.679129  13.010449  1.270566
  9065.800  9065.800  0.500  2.192161  116.704703  13.033016  1.274020
  9066.292  9066.300  0.500  2.190967  116.703533  13.048461  1.277113
  9066.795  9066.800  0.500  2.189953  116.702606  13.061590  1.279143
  9067.287  9067.300  0.500  2.189037  116.697160  13.072954  1.281738
  9067.804  9067.800  0.500  2.188606  116.685919  13.077332  1.282161
  9068.303  9068.300  0.500  2.188650  116.679582  13.076037  1.282294
  9068.803  9068.800  0.500  2.189022  116.679800  13.071195  1.280942
  9069.299  9069.300  0.500  2.189631  116.665426  13.061630  1.279214
  9069.805  9069.800  0.500  2.189959  116.656208  13.056316  1.278353
  9070.308  9070.300  0.500  2.190561  116.639490  13.046585  1.276713
  9070.812  9070.800  0.500  2.190967  116.640226  13.041374  1.275508
  9071.786  9071.790  0.500  2.191423  116.612338  13.032315  1.274424
  9072.797  9072.790  0.500  2.190812  116.597562  13.038624  1.275169
  9073.814  9073.810  0.500  2.189403  116.565257  13.053398  1.277927
  9074.871  9074.860  0.500  2.186707  116.552209  13.087163  1.283771
  9075.922  9075.920  0.500  2.182757  116.524704  13.135859  1.292894
  9077.014  9077.000  0.500  2.177370  116.494951  13.203447  1.305365
  9078.111  9078.100  0.500  2.171229  116.481203  13.283213  1.320183
  9079.215  9079.220  0.500  2.164749  116.447604  13.365704  1.335048
  9080.370  9080.360  0.500  2.157842  116.161832  13.425314  1.348577
  9081.517  9081.510  0.500  2.151195  115.145168  13.396574  1.352783
  9082.704  9082.690  0.500  2.145236  116.070547  13.584941  1.378417
  9083.887  9083.880  0.500  2.139750  116.262670  13.682288  1.394696
  9085.096  9085.100  0.500  2.135105  116.262819  13.746006  1.405721
  9086.337  9086.330  0.500  2.131778  116.242941  13.789451  1.414394
  9087.589  9087.580  0.500  2.129228  116.639484  13.871826  1.426164
  9088.863  9088.850  0.500  2.127438  116.610599  13.893233  1.430124
  9090.140  9090.140  0.500  2.126030  116.583312  13.909554  1.433527
  9091.458  9091.450  0.500  2.125049  116.549472  13.919174  1.435198
  9092.789  9092.780  0.500  2.124641  116.516853  13.920953  1.436011
  9094.143  9094.130  0.500  2.124688  116.486270  13.916637  1.435916
  9095.497  9095.500  0.500  2.124862  116.460311  13.911122  1.435256
  9096.891  9096.880  0.500  2.124977  116.424582  13.905254  1.433641
  9098.303  9098.290  0.500  2.125502  116.397187  13.894682  1.432628
  9099.715  9099.710  0.500  2.125799  116.363618  13.886546  1.430608
  9101.156  9101.150  0.500  2.126407  116.330375  13.874145  1.428687
  9102.620  9102.610  0.500  2.127250  116.221004  13.849426  1.425050
  9104.094  9104.090  0.500  2.128747  115.012107  13.684866  1.407269
  9105.608  9105.590  0.500  2.129998  116.088185  13.795628  1.416042
  9107.127  9107.110  0.500  2.131513  116.133037  13.780065  1.412671
  9108.646  9108.650  0.500  2.133248  116.111246  13.753607  1.408204
  9110.222  9110.210  0.500  2.134964  116.081443  13.726502  1.402866
  9111.785  9111.780  0.500  2.137096  116.046834  13.693185  1.396307
  9113.391  9113.380  0.500  2.139362  116.000310  13.656714  1.390125
  9114.987  9114.990  0.500  2.141410  115.959753  13.624009  1.384734
  9116.631  9116.630  0.500  2.142777  115.921667  13.600925  1.381003
  9118.285  9118.280  0.500  2.143261  115.884824  13.590016  1.378658
  9119.948  9119.950  0.500  2.143004  115.827843  13.586833  1.378741
  9121.654  9121.640  0.500  2.142156  115.796246  13.594647  1.380520
  9123.361  9123.350  0.500  2.140065  115.748547  13.617490  1.384408
  9125.086  9125.080  0.500  2.137350  115.706208  13.649512  1.391037
  9126.841  9126.830  0.500  2.133765  115.663897  13.693527  1.399222
  9128.607  9128.590  0.500  2.129606  115.612255  13.744456  1.409633
  9130.391  9130.380  0.500  2.125661  115.561545  13.792734  1.419044
  9132.191  9132.180  0.500  2.121768  115.507869  13.840100  1.428066
  9134.024  9134.010  0.500  2.118894  115.454596  13.873546  1.434472
  9135.869  9135.850  0.500  2.116673  115.402273  13.898089  1.440291
  9137.711  9137.710  0.500  2.115074  115.343602  13.913249  1.443169
  9139.611  9139.590  0.500  2.113830  115.262036  13.920714  1.445312
  9141.504  9141.490  0.500  2.112852  115.129320  13.918299  1.445750
  9143.420  9143.410  0.500  2.112202  114.358455  13.834095  1.438384
  9145.362  9145.350  0.500  2.111504  113.963316  13.795918  1.434066
  9147.316  9147.310  0.500  2.110670  115.257372  13.964204  1.452892
  9149.285  9149.280  0.500  2.109164  115.151210  13.972380  1.455341
  9151.291  9151.280  0.500  2.107001  115.071586  13.992941  1.460018
  9153.305  9153.290  0.500  2.104641  114.972012  14.013873  1.464833
  9155.324  9155.320  0.500  2.102299  114.786261  14.024039  1.468710
  9157.398  9157.380  0.500  2.099762  111.363968  13.640484  1.431801
  9159.469  9159.450  0.500  2.097393  114.976417  14.116356  1.484004
  9161.545  9161.540  0.500  2.095125  114.888165  14.137544  1.488854
  9163.668  9163.650  0.500  2.092528  114.787308  14.161862  1.494842
  9165.793  9165.780  0.500  2.090418  114.621842  14.171325  1.497862
  9167.926  9167.920  0.500  2.089038  112.331341  13.907314  1.472734
  9170.114  9170.090  0.500  2.087568  114.691358  14.220384  1.506793
  9172.289  9172.280  0.500  2.086848  114.672239  14.228265  1.508233
  9174.491  9174.480  0.500  2.086384  114.588737  14.224494  1.508139
  9176.715  9176.700  0.500  2.086086  114.487658  14.216178  1.507092
  9178.966  9178.950  0.500  2.086300  114.345587  14.195510  1.505139
  9181.218  9181.210  0.500  2.086921  113.556121  14.088745  1.493736
  9183.503  9183.490  0.500  2.087255  113.965797  14.134856  1.496704
  9185.801  9185.790  0.500  2.087451  114.404831  14.186522  1.502185
  9188.122  9188.110  0.500  2.086878  114.282077  14.179423  1.501588
  9190.458  9190.450  0.500  2.085534  114.197012  14.187927  1.504153
  9192.829  9192.800  0.500  2.084040  114.133944  14.201289  1.506804
  9195.197  9195.180  0.500  2.082606  114.049905  14.211193  1.509367
  9197.585  9197.570  0.500  2.081421  113.977968  14.219074  1.511984
  9200.010  9199.990  0.500  2.079961  113.886965  14.228472  1.514036
  9202.437  9202.420  0.500  2.078366  113.823382  14.243240  1.517652
  9204.883  9204.870  0.500  2.076076  113.769276  14.269108  1.522992
  9207.364  9207.350  0.500  2.073211  113.695152  14.300717  1.529877
  9209.857  9209.840  0.500  2.070225  113.634090  14.335782  1.537392
  9212.362  9212.350  0.500  2.067145  113.568468  14.371696  1.544907
  9214.883  9214.870  0.500  2.064149  113.515550  14.408107  1.552309
  9217.442  9217.420  0.500  2.061673  113.449523  14.435422  1.559128
  9220.003  9219.990  0.500  2.059644  113.384457  14.456452  1.563678
  9222.580  9222.570  0.500  2.058374  113.312722  14.465657  1.565894
  9225.191  9225.180  0.500  2.057890  113.237162  14.463012  1.566131
  9227.815  9227.800  0.500  2.056985  113.153424  14.465396  1.567038
  9230.470  9230.450  0.500  2.055997  113.103719  14.473337  1.569131
  9233.126  9233.110  0.500  2.054684  113.025856  14.482384  1.571155
  9235.799  9235.790  0.500  2.053338  112.973131  14.495115  1.574079
  9238.514  9238.490  0.500  2.051458  112.899240  14.512904  1.577874
  9241.223  9241.210  0.500  2.049794  112.831045  14.528281  1.581832
  9243.966  9243.950  0.500  2.047699  112.774122  14.551403  1.587328
  9246.716  9246.700  0.500  2.045695  112.714169  14.572855  1.591989
  9249.496  9249.480  0.500  2.043733  112.637073  14.591485  1.596543
  9252.285  9252.270  0.500  2.041560  112.574551  14.615100  1.602038
  9255.113  9255.090  0.500  2.039126  112.490508  14.639785  1.608088
  9257.932  9257.920  0.500  2.036489  112.425345  14.669942  1.613856
  9260.801  9260.770  0.500  2.034146  112.349666  14.694447  1.619702
  9263.660  9263.650  0.500  2.032296  112.278093  14.712278  1.623474
  9266.562  9266.540  0.500  2.031026  112.214623  14.722648  1.626189
  9269.465  9269.450  0.500  2.029404  112.143251  14.737176  1.630202
  9272.389  9272.370  0.500  2.027932  112.055063  14.747276  1.632565
  9275.345  9275.320  0.500  2.027104  111.543285  14.692086  1.628328
  9278.310  9278.290  0.500  2.025945  111.967020  14.765004  1.636748
  9281.288  9281.270  0.500  2.024891  111.885237  14.769769  1.639043
  9284.298  9284.280  0.500  2.023579  111.794226  14.777128  1.641357
  9287.325  9287.300  0.500  2.022266  111.724626  14.787335  1.643829
  9290.364  9290.350  0.500  2.020367  111.610791  14.800342  1.647936
  9293.440  9293.410  0.500  2.018384  111.186719  14.773377  1.646747
  9296.502  9296.490  0.500  2.016685  111.432321  14.831196  1.655196
  9299.619  9299.590  0.500  2.014888  108.111416  14.415066  1.610990
  9302.734  9302.710  0.500  2.012805  111.401233  14.884688  1.666221
  9305.878  9305.850  0.500  2.010630  110.992804  14.862419  1.666606
  9309.016  9309.000  0.500  2.008223  111.256812  14.933664  1.677581
  9312.205  9312.180  0.500  2.005823  111.172983  14.958265  1.683332
  9315.389  9315.370  0.500  2.003417  111.082179  14.982058  1.688862
  9318.613  9318.590  0.500  2.000937  110.998254  15.007910  1.695150
  9321.842  9321.820  0.500  1.998439  110.880490  15.029479  1.700987
  9325.089  9325.070  0.500  1.995940  110.723329  15.045737  1.705596
  9328.375  9328.350  0.500  1.993677  110.783348  15.087991  1.713850
  9331.664  9331.640  0.500  1.991453  110.695410  15.109579  1.719039
  9334.978  9334.950  0.500  1.989424  110.621489  15.130168  1.724217
  9338.298  9338.270  0.500  1.987704  110.537321  15.144676  1.727973
  9341.644  9341.620  0.500  1.985908  110.438079  15.158287  1.731447
  9344.999  9344.990  0.500  1.984127  110.349621  15.173133  1.736013
  9348.394  9348.370  0.500  1.981983  110.270811  15.194849  1.740955
  9351.803  9351.780  0.500  1.979978  110.182508  15.213148  1.745763
  9355.211  9355.200  0.500  1.977880  110.098303  15.233448  1.751192
  9358.674  9358.650  0.500  1.975399  110.016879  15.259996  1.757401
  9362.125  9362.110  0.500  1.973053  109.933158  15.284197  1.763540
  9365.616  9365.590  0.500  1.970666  109.841815  15.307999  1.769054
  9369.114  9369.090  0.500  1.968479  109.730254  15.325934  1.774680
  9372.633  9372.610  0.500  1.966456  109.629437  15.342861  1.779111
  9376.178  9376.150  0.500  1.964687  109.543412  15.357966  1.783324
  9379.726  9379.700  0.500  1.962874  109.458660  15.373926  1.787582
  9383.306  9383.280  0.500  1.960982  109.361172  15.389324  1.792244
  9386.894  9386.880  0.500  1.959097  109.269334  15.405411  1.796106
  9390.518  9390.490  0.500  1.957071  109.182813  15.424429  1.800357
  9394.145  9394.120  0.500  1.955175  109.081820  15.439403  1.805228
  9397.798  9397.780  0.500  1.952973  108.998562  15.461633  1.811225
  9401.473  9401.450  0.500  1.950745  108.906352  15.483004  1.815862
  9405.166  9405.140  0.500  1.948510  108.826370  15.506257  1.821921
  9408.874  9408.850  0.500  1.946444  108.734239  15.525172  1.826743
  9412.603  9412.580  0.500  1.944319  108.640735  15.544816  1.831911
  9416.328  9416.320  0.500  1.942153  108.550616  15.565610  1.837405
  9420.114  9420.090  0.500  1.940077  108.448988  15.583354  1.842937
  9423.906  9423.880  0.500  1.937794  108.363320  15.606620  1.848645
  9427.702  9427.680  0.500  1.935296  108.280709  15.633732  1.855134
  9431.535  9431.510  0.500  1.932679  108.172854  15.659082  1.862316
  9435.371  9435.350  0.500  1.930126  108.037072  15.679411  1.868465
  9439.234  9439.210  0.500  1.927344  107.959469  15.711798  1.875756
  9443.111  9443.090  0.500  1.924784  107.871972  15.739313  1.883012
  9447.008  9446.990  0.500  1.922213  107.779213  15.766247  1.889856
  9450.930  9450.910  0.500  1.919511  107.681266  15.794551  1.896659
  9454.875  9454.850  0.500  1.917279  107.578065  15.814660  1.902780
  9458.828  9458.810  0.500  1.914663  107.474505  15.840820  1.909914
  9462.799  9462.780  0.500  1.912175  107.373408  15.865349  1.916202
  9466.797  9466.780  0.500  1.909861  107.256433  15.884783  1.921761
  9470.794  9470.790  0.500  1.907429  107.154828  15.908377  1.928274
  9474.853  9474.830  0.500  1.904998  107.065517  15.933799  1.934063
  9478.900  9478.880  0.500  1.902830  106.954198  15.951779  1.940263
  9482.962  9482.950  0.500  1.900654  106.855515  15.971787  1.945608
  9487.059  9487.040  0.500  1.898597  106.750209  15.988898  1.950507
  9491.164  9491.150  0.500  1.896606  106.641762  16.004495  1.955374
  9495.295  9495.280  0.500  1.894480  106.528867  16.021571  1.960720
  9499.446  9499.430  0.500  1.892421  106.420319  16.038235  1.965069
  9503.600  9503.590  0.500  1.890298  106.319378  16.057076  1.970911
  9507.797  9507.780  0.500  1.887794  106.205852  16.080138  1.977335
  9511.990  9511.980  0.500  1.885021  106.096586  16.108211  1.985315
  9516.222  9516.210  0.500  1.882591  105.999932  16.132694  1.992026
  9520.470  9520.450  0.500  1.879885  105.898949  16.160994  1.999781
  9524.729  9524.710  0.500  1.877239  105.784877  16.186356  2.006018
  9529.008  9528.990  0.500  1.874926  105.682457  16.208133  2.012906
  9533.319  9533.290  0.500  1.872024  105.570214  16.237965  2.021066
  9537.625  9537.610  0.500  1.869195  105.470224  16.268552  2.028320
  9541.975  9541.950  0.500  1.866649  105.329439  16.288257  2.036188
  9546.329  9546.310  0.500  1.864016  105.244524  16.318025  2.043826
  9550.702  9550.690  0.500  1.861305  105.123216  16.343461  2.050754
  9555.096  9555.080  0.500  1.858786  105.021301  16.368805  2.057382
  9559.525  9559.500  0.500  1.856117  104.880274  16.390506  2.064668
  9563.943  9563.930  0.500  1.853692  104.770880  16.413175  2.071771
  9568.400  9568.380  0.500  1.851386  104.688638  16.438146  2.077992
  9572.874  9572.850  0.500  1.848984  104.569933  16.458995  2.083934
  9577.359  9577.340  0.500  1.846782  104.452850  16.476810  2.089689
  9581.881  9581.850  0.500  1.844543  104.332853  16.494768  2.095610
  9586.403  9586.380  0.500  1.842027  104.222830  16.518877  2.103083
  9590.941  9590.930  0.500  1.839381  104.095060  16.542352  2.109821
