# XDI/1.0 BlueSky/1.10.0 BMM/2023-1.0-py310-tiled
# Beamline.name: BMM (06BM) -- Beamline for Materials Measurement (NIST)
# Beamline.xray_source: NSLS-II three-pole wiggler
# Beamline.collimation: paraboloid mirror, 5 nm Rh on 30 nm Pt
# Beamline.focusing: not in use
# Beamline.harmonic_rejection: flat mirror, Pt stripe, pitch = 7.0 mrad relative to beam
# Beamline.software: Bluesky 1.10.0, Ophyd 1.7.0, DataBroker 2.0.0b13, Python 3.10.8, 2023-1.0-py310-tiled
# Detector.I0: 10 cm N2
# Detector.I1: 25 cm N2
# Detector.I2: 25 cm N2
# Element.symbol: Dy
# Element.edge: L1
# Element.reference: Dy
# Element.reference_material: Dy2O3
# Facility.name: NSLS-II
# Facility.energy: 3.0
# Facility.current: 400.5
# Facility.mode: top-off
# Facility.GUP: 123456
# Facility.SAF: 301027
# Facility.cycle: 2023-2
# Mono.name: Si(111)
# Mono.d_spacing: 3.1351860
# Mono.encoder_resolution: 0.0000050 deg/ct
# Mono.angle_offset: 16.0754326 deg
# Mono.scan_mode: pseudo channel cut
# Mono.scan_type: step
# Mono.direction: forward in energy
# Sample.name: DyScO3
# Sample.prep: powder on tape
# Sample.x: 149.848 mm
# Sample.y: 114.690 mm
# Sample.SDD_position: 205.000 mm
# Scan.experimenters: Bruce Ravel
# Scan.edge_energy: 9045.8
# Scan.start_time: 2023-05-08T22:21:22
# Scan.end_time: 2023-05-08T22:27:11
# Scan.transient_id: 75671
# Scan.uid: ff9fd2cd-21e4-40a2-96a1-0b5ddaa988f7
# Scan.plot_hint: ln(I0/It)  --  ln($5/$6)
# Column.1: energy eV
# Column.2: requested_energy eV
# Column.3: measurement_time seconds
# Column.4: xmu 
# Column.5: I0 nA
# Column.6: It nA
# Column.7: Ir nA
# ///////////
# sample courtesy Igor Levin, NIST
# -----------
# energy  requested_energy  measurement_time  xmu  I0  It  Ir
  8845.805  8845.800  0.500  1.155781  122.102352  38.439249  3.978937
  8855.807  8855.800  0.500  1.151317  121.898160  38.546653  4.012174
  8865.849  8865.800  0.500  1.146760  121.670871  38.650480  4.050536
  8875.864  8875.800  0.500  1.141184  121.470824  38.802718  4.093831
  8885.868  8885.800  0.500  1.135348  121.258908  38.961744  4.126566
  8895.844  8895.800  0.500  1.130431  121.019057  39.076342  4.153946
  8905.826  8905.800  0.500  1.125673  120.758037  39.178006  4.188354
  8915.827  8915.800  0.500  1.121074  120.483132  39.268995  4.222088
  8925.855  8925.800  0.500  1.117216  120.441498  39.407197  4.255427
  8935.824  8935.800  0.500  1.112269  119.949052  39.440690  4.277492
  8945.819  8945.800  0.500  1.106928  119.981357  39.662591  4.320478
  8955.820  8955.800  0.500  1.102082  119.732665  39.772644  4.350340
  8965.816  8965.800  0.500  1.098090  119.234693  39.765658  4.364944
  8975.818  8975.800  0.500  1.094203  119.275806  39.934308  4.403703
  8985.825  8985.800  0.500  1.090181  118.982379  39.996599  4.431648
  8995.823  8995.800  0.500  1.085565  118.760108  40.106601  4.467274
  9005.827  9005.800  0.500  1.080743  118.554747  40.230775  4.501976
  9015.812  9015.800  0.500  1.076297  118.325626  40.331926  4.535121
  9017.801  9017.800  0.500  1.075728  118.230234  40.322339  4.538516
  9019.794  9019.800  0.500  1.074868  117.793442  40.207953  4.528474
  9021.791  9021.800  0.500  1.073873  117.684116  40.210616  4.531096
  9023.793  9023.800  0.500  1.073279  118.199744  40.410797  4.557167
  9025.802  9025.800  0.500  1.072674  118.144928  40.416495  4.560791
  9027.810  9027.800  0.500  1.072027  118.088527  40.423361  4.562841
  9029.789  9029.800  0.500  1.071441  118.047399  40.432946  4.565318
  9032.016  9031.800  0.500  1.070993  117.973254  40.425683  4.565291
  9033.762  9033.800  0.500  1.070702  117.927465  40.421735  4.564226
  9035.815  9035.800  0.500  1.070891  117.844221  40.385568  4.561018
  9036.286  9036.300  0.500  1.070691  117.848260  40.395029  4.561849
  9036.775  9036.800  0.500  1.070577  117.834362  40.394875  4.561251
  9037.278  9037.300  0.500  1.070668  117.814364  40.384344  4.559857
  9037.771  9037.800  0.500  1.070856  117.808597  40.374786  4.558630
  9038.277  9038.300  0.500  1.070903  117.782650  40.363976  4.556193
  9038.780  9038.800  0.500  1.070993  117.766629  40.354847  4.554279
  9039.280  9039.300  0.500  1.071078  117.729921  40.338869  4.550970
  9039.773  9039.800  0.500  1.071305  117.712717  40.323812  4.548590
  9040.279  9040.300  0.500  1.071626  117.638687  40.285508  4.543356
  9040.779  9040.800  0.500  1.071787  117.225539  40.137558  4.525926
  9041.283  9041.300  0.500  1.071997  116.620571  39.922046  4.499387
  9041.779  9041.800  0.500  1.072351  116.358081  39.818080  4.486768
  9042.283  9042.300  0.500  1.072590  116.637427  39.904130  4.493613
  9042.783  9042.800  0.500  1.073190  117.310465  40.110351  4.515711
  9043.293  9043.300  0.500  1.073587  117.508248  40.162005  4.520003
  9043.790  9043.800  0.500  1.074100  117.547064  40.154687  4.516925
  9044.287  9044.300  0.500  1.074668  117.544809  40.131120  4.510657
  9044.780  9044.800  0.500  1.075448  117.543203  40.099252  4.504854
  9045.277  9045.300  0.500  1.076133  117.531042  40.067676  4.495712
  9045.787  9045.800  0.500  1.077265  117.518237  40.017975  4.486269
  9046.288  9046.300  0.500  1.078449  117.501405  39.964899  4.473035
  9046.785  9046.800  0.500  1.080130  117.493596  39.895106  4.457968
  9047.285  9047.300  0.500  1.082106  117.480589  39.811936  4.440134
  9047.786  9047.800  0.500  1.084523  117.469357  39.712031  4.417702
  9048.294  9048.300  0.500  1.087442  117.443126  39.587464  4.390590
  9048.794  9048.800  0.500  1.090986  117.425481  39.441494  4.359547
  9049.295  9049.300  0.500  1.095288  117.411546  39.267495  4.323962
  9049.793  9049.800  0.500  1.099673  117.394602  39.090055  4.288970
  9050.286  9050.300  0.500  1.104171  117.381100  38.910124  4.253991
  9050.798  9050.800  0.500  1.108852  117.360756  38.721713  4.218537
  9051.292  9051.300  0.500  1.113294  117.351428  38.547031  4.183738
  9051.796  9051.800  0.500  1.117144  117.329893  38.391882  4.152478
  9052.291  9052.300  0.500  1.121091  117.319326  38.237205  4.123065
  9052.788  9052.800  0.500  1.124190  117.301085  38.112942  4.094615
  9053.286  9053.300  0.500  1.127397  117.284374  37.985504  4.067483
  9053.791  9053.800  0.500  1.130950  117.257593  37.842116  4.039033
  9054.292  9054.300  0.500  1.134448  117.246781  37.706536  4.010679
  9054.790  9054.800  0.500  1.138303  117.218706  37.552427  3.980835
  9055.291  9055.300  0.500  1.142768  117.212383  37.383124  3.947930
  9055.789  9055.800  0.500  1.147885  117.193416  37.186323  3.911736
  9056.302  9056.300  0.500  1.153907  117.176369  36.957657  3.871400
  9056.796  9056.800  0.500  1.160450  117.152967  36.709311  3.829193
  9057.301  9057.300  0.500  1.167546  117.135193  36.444198  3.784297
  9057.792  9057.800  0.500  1.175120  117.125209  36.166149  3.737480
  9058.298  9058.300  0.500  1.183308  117.122970  35.870555  3.687132
  9058.796  9058.800  0.500  1.191044  117.089778  35.584049  3.636037
  9059.298  9059.300  0.500  1.198634  117.081815  35.312571  3.587465
  9059.796  9059.800  0.500  1.204622  117.060726  35.095411  3.542374
  9060.284  9060.300  0.500  1.209580  117.044396  34.917000  3.502140
  9060.790  9060.800  0.500  1.213360  117.021754  34.778527  3.468019
  9061.292  9061.300  0.500  1.216019  116.997712  34.679040  3.438429
  9061.801  9061.800  0.500  1.217935  116.962308  34.602191  3.413554
  9062.304  9062.300  0.500  1.219185  116.818363  34.516427  3.390206
  9062.802  9062.800  0.500  1.220241  116.282329  34.321779  3.361918
  9063.308  9063.300  0.500  1.220302  115.793352  34.175355  3.340042
  9063.804  9063.800  0.500  1.219936  115.674496  34.152794  3.334761
  9064.310  9064.300  0.500  1.219355  116.154345  34.314380  3.349828
  9064.798  9064.800  0.500  1.218486  116.645650  34.489486  3.369761
  9065.294  9065.300  0.500  1.217362  116.763659  34.563207  3.380165
  9065.796  9065.800  0.500  1.216367  116.780170  34.602521  3.387849
  9066.295  9066.300  0.500  1.215219  116.780446  34.642323  3.395229
  9066.791  9066.800  0.500  1.214206  116.766776  34.673393  3.401954
  9067.294  9067.300  0.500  1.213367  116.762380  34.701183  3.406085
  9067.797  9067.800  0.500  1.212699  116.744652  34.719110  3.408180
  9068.303  9068.300  0.500  1.212147  116.731182  34.734276  3.410285
  9068.803  9068.800  0.500  1.211851  116.717522  34.740480  3.409586
  9069.302  9069.300  0.500  1.211636  116.705890  34.744505  3.408301
  9069.798  9069.800  0.500  1.211467  116.692362  34.746343  3.406211
  9070.301  9070.300  0.500  1.211641  116.673970  34.734807  3.403709
  9070.801  9070.800  0.500  1.211640  116.662982  34.731577  3.401911
  9071.801  9071.790  0.500  1.211093  116.641596  34.744202  3.402024
  9072.797  9072.790  0.500  1.209367  116.613167  34.795743  3.407531
  9073.807  9073.810  0.500  1.206543  116.582078  34.884853  3.421263
  9074.868  9074.860  0.500  1.202917  116.555573  35.003595  3.439193
  9075.925  9075.920  0.500  1.199117  116.514801  35.124577  3.461625
  9077.011  9077.000  0.500  1.195694  116.487445  35.236746  3.487598
  9078.111  9078.100  0.500  1.192668  116.461754  35.335740  3.515245
  9079.230  9079.220  0.500  1.190309  116.422214  35.407183  3.541135
  9080.362  9080.360  0.500  1.188318  116.147230  35.393940  3.559632
  9081.506  9081.510  0.500  1.186480  115.115023  35.143929  3.553894
  9082.700  9082.690  0.500  1.184267  116.009655  35.495518  3.606298
  9083.891  9083.880  0.500  1.181692  116.208750  35.648109  3.637356
  9085.114  9085.100  0.500  1.178818  116.204832  35.749489  3.661670
  9086.330  9086.330  0.500  1.176068  116.185183  35.841898  3.681273
  9087.582  9087.580  0.500  1.173465  116.155067  35.925979  3.698404
  9088.852  9088.850  0.500  1.170901  116.117150  36.006472  3.711542
  9090.147  9090.140  0.500  1.169029  116.084845  36.063913  3.721532
  9091.450  9091.450  0.500  1.167572  116.054237  36.106968  3.727994
  9092.782  9092.780  0.500  1.166914  116.020543  36.120224  3.731078
  9094.125  9094.130  0.500  1.166853  115.979973  36.109804  3.730081
  9095.501  9095.500  0.500  1.167047  115.951127  36.093807  3.727830
  9096.887  9096.880  0.500  1.167540  115.915063  36.064819  3.723070
  9098.292  9098.290  0.500  1.167985  115.871715  36.035282  3.719427
  9099.719  9099.710  0.500  1.168579  115.835772  36.002711  3.714062
  9101.153  9101.150  0.500  1.169412  115.792365  35.959278  3.707846
  9102.620  9102.610  0.500  1.170297  115.676738  35.891588  3.697328
  9104.094  9104.090  0.500  1.171008  114.474288  35.493245  3.653179
  9105.598  9105.590  0.500  1.171810  115.534723  35.793319  3.678950
  9107.120  9107.110  0.500  1.172579  115.583931  35.781019  3.672527
  9108.663  9108.650  0.500  1.173049  115.560937  35.757116  3.665374
  9110.222  9110.210  0.500  1.173356  115.525235  35.735094  3.657025
  9111.778  9111.780  0.500  1.173655  115.484127  35.711701  3.647466
  9113.402  9113.380  0.500  1.174103  115.892954  35.822063  3.651650
  9114.998  9114.990  0.500  1.174416  115.849382  35.797386  3.642682
  9116.627  9116.630  0.500  1.174840  115.798460  35.766481  3.635678
  9118.275  9118.280  0.500  1.175235  115.766847  35.742588  3.630659
  9119.955  9119.950  0.500  1.175401  115.727639  35.724578  3.629060
  9121.654  9121.640  0.500  1.175579  115.668975  35.700100  3.628566
  9123.357  9123.350  0.500  1.175274  115.621342  35.696282  3.634172
  9125.097  9125.080  0.500  1.173843  115.566770  35.730519  3.645283
  9126.837  9126.830  0.500  1.171367  115.519620  35.804480  3.663184
  9128.596  9128.590  0.500  1.168001  115.458485  35.906195  3.685854
  9130.395  9130.380  0.500  1.164723  115.419095  36.011795  3.710171
  9132.202  9132.180  0.500  1.161728  115.365882  36.103165  3.730412
  9134.014  9134.010  0.500  1.159365  115.307639  36.170310  3.745712
  9135.865  9135.850  0.500  1.157338  115.240568  36.222622  3.757410
  9137.721  9137.710  0.500  1.155731  115.176782  36.260790  3.766181
  9139.600  9139.590  0.500  1.154414  115.080206  36.278148  3.770945
  9141.497  9141.490  0.500  1.153396  114.958713  36.276737  3.772908
  9143.420  9143.410  0.500  1.152725  114.202994  36.062458  3.753271
  9145.359  9145.350  0.500  1.152130  113.753828  35.941998  3.740512
  9147.316  9147.310  0.500  1.152094  115.082337  36.363068  3.789112
  9149.296  9149.280  0.500  1.151807  114.990534  36.344489  3.790393
  9151.298  9151.280  0.500  1.151547  114.896747  36.324288  3.794675
  9153.295  9153.290  0.500  1.151059  114.771825  36.302502  3.799530
  9155.331  9155.320  0.500  1.150348  114.589626  36.270649  3.803115
  9157.398  9157.380  0.500  1.149673  111.246924  35.236398  3.702749
  9159.458  9159.450  0.500  1.148756  114.761498  36.382959  3.830852
  9161.559  9161.540  0.500  1.147539  114.692869  36.405458  3.839162
  9163.665  9163.650  0.500  1.146015  114.583785  36.426319  3.848967
  9165.793  9165.780  0.500  1.144250  114.420428  36.438628  3.856849
  9167.948  9167.920  0.500  1.142865  112.129811  35.758643  3.792003
  9170.104  9170.090  0.500  1.141230  114.467459  36.563864  3.878734
  9172.300  9172.280  0.500  1.139545  114.459205  36.622896  3.886854
  9174.498  9174.480  0.500  1.137878  114.363643  36.653360  3.891730
  9176.708  9176.700  0.500  1.136197  114.260589  36.681959  3.894257
  9178.977  9178.950  0.500  1.134630  114.128132  36.696865  3.895033
  9181.225  9181.210  0.500  1.133420  113.346693  36.489741  3.871531
  9183.492  9183.490  0.500  1.132531  113.671996  36.627016  3.883268
  9185.805  9185.790  0.500  1.132365  114.178749  36.796404  3.900680
  9188.118  9188.110  0.500  1.132297  114.076920  36.766084  3.899146
  9190.469  9190.450  0.500  1.132404  113.985178  36.732609  3.898611
  9192.811  9192.800  0.500  1.132230  113.910185  36.714823  3.901673
  9195.190  9195.180  0.500  1.131616  113.836192  36.713506  3.904600
  9197.578  9197.570  0.500  1.130569  113.745611  36.722724  3.909299
  9200.007  9199.990  0.500  1.129328  113.665261  36.742359  3.914253
  9202.433  9202.420  0.500  1.128312  113.585254  36.753800  3.921750
  9204.880  9204.870  0.500  1.127454  113.516931  36.763241  3.928981
  9207.371  9207.350  0.500  1.126569  113.442038  36.771508  3.938992
  9209.860  9209.840  0.500  1.125504  113.385648  36.792397  3.949882
  9212.358  9212.350  0.500  1.124089  113.329360  36.826203  3.963198
  9214.887  9214.870  0.500  1.122246  113.258615  36.871109  3.978452
  9217.420  9217.420  0.500  1.120319  113.183869  36.917824  3.990899
  9220.007  9219.990  0.500  1.118293  113.124307  36.973232  4.003220
  9222.576  9222.570  0.500  1.116020  113.052239  37.033746  4.013199
  9225.188  9225.180  0.500  1.113908  112.973814  37.086307  4.021418
  9227.812  9227.800  0.500  1.111873  112.917844  37.143446  4.029048
  9230.466  9230.450  0.500  1.110267  112.845498  37.179334  4.035017
  9233.126  9233.110  0.500  1.109043  112.769881  37.199921  4.040185
  9235.810  9235.790  0.500  1.108088  112.706174  37.214429  4.046189
  9238.514  9238.490  0.500  1.107144  112.641709  37.228247  4.052927
  9241.223  9241.210  0.500  1.106040  112.570400  37.245770  4.060269
  9243.963  9243.950  0.500  1.104738  112.505760  37.272894  4.070328
  9246.723  9246.700  0.500  1.103380  112.443499  37.302889  4.079966
  9249.489  9249.480  0.500  1.102149  112.379794  37.327679  4.088764
  9252.289  9252.270  0.500  1.101117  112.307897  37.342316  4.097010
  9255.102  9255.090  0.500  1.100047  112.232719  37.357273  4.106859
  9257.943  9257.920  0.500  1.099193  112.152930  37.362600  4.114210
  9260.782  9260.770  0.500  1.097990  112.071922  37.380574  4.124248
  9263.667  9263.650  0.500  1.096823  112.000833  37.400463  4.132491
  9266.562  9266.540  0.500  1.095843  111.933097  37.414485  4.137909
  9269.462  9269.450  0.500  1.094658  111.858188  37.433781  4.144756
  9272.389  9272.370  0.500  1.093541  111.776765  37.448363  4.151036
  9275.327  9275.320  0.500  1.092295  111.293598  37.332962  4.141563
  9278.317  9278.290  0.500  1.090775  111.672034  37.516898  4.164234
  9281.277  9281.270  0.500  1.089272  111.582936  37.543336  4.170997
  9284.294  9284.280  0.500  1.087405  111.494513  37.583706  4.178474
  9287.328  9287.300  0.500  1.085551  111.417088  37.627282  4.188907
  9290.364  9290.350  0.500  1.083818  111.320162  37.659770  4.197374
  9293.451  9293.410  0.500  1.082387  110.869215  37.560913  4.191367
  9296.491  9296.490  0.500  1.081018  111.125182  37.699209  4.212554
  9299.597  9299.590  0.500  1.079940  107.889535  36.640993  4.100084
  9302.723  9302.710  0.500  1.078530  111.100639  37.784789  4.234814
  9305.863  9305.850  0.500  1.077137  110.702109  37.701735  4.233165
  9309.020  9309.000  0.500  1.075702  110.941333  37.837467  4.254858
  9312.202  9312.180  0.500  1.074246  110.851637  37.861954  4.266389
  9315.389  9315.370  0.500  1.072727  110.772631  37.892497  4.277138
  9318.605  9318.590  0.500  1.071018  110.676860  37.924491  4.289760
  9321.831  9321.820  0.500  1.069364  110.549494  37.943561  4.298802
  9325.078  9325.070  0.500  1.067743  110.373433  37.944556  4.306855
  9328.368  9328.350  0.500  1.066162  110.453243  38.032101  4.324554
  9331.649  9331.640  0.500  1.064549  110.373743  38.066049  4.336660
  9334.975  9334.950  0.500  1.062750  110.287609  38.104846  4.346797
  9338.283  9338.270  0.500  1.060928  110.198118  38.143356  4.357137
  9341.651  9341.620  0.500  1.059165  110.104684  38.178292  4.366630
  9345.002  9344.990  0.500  1.057581  110.022647  38.210315  4.376822
  9348.398  9348.370  0.500  1.056099  109.928680  38.234298  4.386416
  9351.803  9351.780  0.500  1.054579  109.848829  38.264637  4.396152
  9355.218  9355.200  0.500  1.053098  109.774237  38.295335  4.406557
  9358.670  9358.650  0.500  1.051621  109.683631  38.320294  4.417778
  9362.129  9362.110  0.500  1.050204  109.603695  38.346637  4.429161
  9365.616  9365.590  0.500  1.048566  109.503218  38.374287  4.439893
  9369.110  9369.090  0.500  1.047156  109.429827  38.402688  4.451049
  9372.630  9372.610  0.500  1.045704  109.342867  38.427928  4.461020
  9376.174  9376.150  0.500  1.044007  109.253133  38.461621  4.470732
  9379.710  9379.700  0.500  1.042407  109.169039  38.493524  4.480733
  9383.310  9383.280  0.500  1.040999  109.090340  38.519979  4.489783
  9386.897  9386.880  0.500  1.039262  109.022421  38.562936  4.500732
  9390.507  9390.490  0.500  1.037661  108.944122  38.596969  4.511369
  9394.149  9394.120  0.500  1.035817  108.864611  38.640017  4.523482
  9397.794  9397.780  0.500  1.033968  108.785546  38.683379  4.536105
  9401.477  9401.450  0.500  1.032196  108.704307  38.723053  4.547594
  9405.158  9405.140  0.500  1.030620  108.614624  38.752160  4.558362
  9408.874  9408.850  0.500  1.029063  108.534236  38.783790  4.570432
  9412.603  9412.580  0.500  1.027362  108.454498  38.821290  4.580480
  9416.332  9416.320  0.500  1.025703  108.374594  38.857107  4.592423
  9420.106  9420.090  0.500  1.024198  108.292150  38.886003  4.603217
  9423.902  9423.880  0.500  1.022337  108.205916  38.927427  4.615344
  9427.694  9427.680  0.500  1.020719  108.119507  38.959344  4.627617
  9431.527  9431.510  0.500  1.019033  108.037943  38.995642  4.642347
  9435.364  9435.350  0.500  1.017464  107.945523  39.023437  4.654036
  9439.230  9439.210  0.500  1.015699  107.843426  39.055417  4.667372
  9443.115  9443.090  0.500  1.013953  107.780556  39.100846  4.682229
  9447.008  9446.990  0.500  1.012133  107.688669  39.138677  4.696275
  9450.930  9450.910  0.500  1.010141  107.600714  39.184709  4.711804
  9454.871  9454.850  0.500  1.008340  107.516509  39.224627  4.725813
  9458.828  9458.810  0.500  1.006370  107.411880  39.263699  4.738493
  9462.803  9462.780  0.500  1.004427  107.325640  39.308505  4.752147
  9466.801  9466.780  0.500  1.002462  107.238454  39.353814  4.765818
  9470.802  9470.790  0.500  1.000514  107.156996  39.400608  4.780409
  9474.853  9474.830  0.500  0.998750  107.059486  39.434248  4.792991
  9478.900  9478.880  0.500  0.996959  106.964592  39.469921  4.805671
  9482.966  9482.950  0.500  0.995157  106.865980  39.504657  4.818840
  9487.063  9487.040  0.500  0.993382  106.760911  39.535934  4.829667
  9491.164  9491.150  0.500  0.991603  106.662307  39.569751  4.839136
  9495.291  9495.280  0.500  0.990013  106.565744  39.596830  4.850490
  9499.446  9499.430  0.500  0.988314  106.455949  39.623304  4.861322
  9503.604  9503.590  0.500  0.986547  106.351635  39.654486  4.874127
  9507.786  9507.780  0.500  0.984787  106.256289  39.688711  4.886803
  9511.998  9511.980  0.500  0.983011  106.155715  39.721623  4.900682
  9516.222  9516.210  0.500  0.981366  106.059968  39.751154  4.913132
  9520.458  9520.450  0.500  0.979441  105.962331  39.791093  4.928179
  9524.725  9524.710  0.500  0.977461  105.845638  39.826019  4.942434
  9528.997  9528.990  0.500  0.975534  105.749671  39.866676  4.957239
  9533.307  9533.290  0.500  0.973661  105.632797  39.897267  4.971738
  9537.629  9537.610  0.500  0.971593  105.526426  39.939604  4.986642
  9541.955  9541.950  0.500  0.969665  105.429142  39.979807  5.002659
  9546.333  9546.310  0.500  0.967719  105.328394  40.019369  5.017399
  9550.710  9550.690  0.500  0.965917  105.213641  40.047871  5.030722
  9555.088  9555.080  0.500  0.963930  105.110924  40.088380  5.045899
  9559.525  9559.500  0.500  0.962053  104.995582  40.119626  5.059519
  9563.943  9563.930  0.500  0.960196  104.877240  40.148896  5.072004
  9568.392  9568.380  0.500  0.958384  104.762461  40.177687  5.084281
  9572.870  9572.850  0.500  0.956523  104.659023  40.212764  5.097708
  9577.363  9577.340  0.500  0.954832  104.556537  40.241383  5.110185
  9581.865  9581.850  0.500  0.952843  104.435479  40.274838  5.123698
  9586.403  9586.380  0.500  0.950784  104.311582  40.309952  5.136231
  9590.953  9590.930  0.500  0.948833  104.201528  40.346073  5.151856
