# XDI/1.0 BlueSky/1.10.0 BMM/2023-1.0-py310-tiled
# Beamline.name: BMM (06BM) -- Beamline for Materials Measurement (NIST)
# Beamline.xray_source: NSLS-II three-pole wiggler
# Beamline.collimation: paraboloid mirror, 5 nm Rh on 30 nm Pt
# Beamline.focusing: not in use
# Beamline.harmonic_rejection: flat mirror, Si stripe, pitch = 7.0 mrad relative to beam
# Beamline.software: Bluesky 1.10.0, Ophyd 1.7.0, DataBroker 2.0.0b13, Python 3.10.8, 2023-1.0-py310-tiled
# Detector.I0: 10 cm N2
# Detector.I1: 25 cm N2
# Detector.I2: 25 cm N2
# Element.symbol: Dy
# Element.edge: L3
# Element.reference: Dy
# Element.reference_material: Dy2O3
# Facility.name: NSLS-II
# Facility.energy: 3.0
# Facility.current: 398.4
# Facility.mode: top-off
# Facility.GUP: 123456
# Facility.SAF: 301027
# Facility.cycle: 2023-2
# Mono.name: Si(111)
# Mono.d_spacing: 3.1351860
# Mono.encoder_resolution: 0.0000050 deg/ct
# Mono.angle_offset: 16.0754326 deg
# Mono.scan_mode: pseudo channel cut
# Mono.scan_type: step
# Mono.direction: forward in energy
# Sample.name: Dy2TiO5
# Sample.prep: Powder in PEG pellet
# Sample.x: 149.848 mm
# Sample.y: 114.690 mm
# Sample.SDD_position: 205.000 mm
# Scan.experimenters: Bruce Ravel
# Scan.edge_energy: 7790.1
# Scan.start_time: 2023-05-08T18:34:25
# Scan.end_time: 2023-05-08T18:40:22
# Scan.transient_id: 75497
# Scan.uid: 38159fd1-9415-4979-a2f4-ceec8697364b
# Scan.plot_hint: ln(I0/It)  --  ln($5/$6)
# Column.1: energy eV
# Column.2: requested_energy eV
# Column.3: measurement_time seconds
# Column.4: xmu 
# Column.5: I0 nA
# Column.6: It nA
# Column.7: Ir nA
# ///////////
# sample courtesy Martin Stennett, University of Sheffield
# -----------
# energy  requested_energy  measurement_time  xmu  I0  It  Ir
  7590.105  7590.100  0.500  1.428831  142.931524  34.244799  5.081482
  7600.119  7600.100  0.500  1.421444  142.602555  34.419285  5.141895
  7610.119  7610.100  0.500  1.414697  142.501710  34.627820  5.208468
  7620.139  7620.100  0.500  1.407258  142.697375  34.934269  5.290000
  7630.121  7630.100  0.500  1.399879  142.893766  35.241436  5.371805
  7640.121  7640.100  0.500  1.392706  142.800703  35.472000  5.443680
  7650.125  7650.100  0.500  1.385501  142.683162  35.699118  5.514966
  7660.122  7660.100  0.500  1.378545  142.564233  35.918341  5.583956
  7670.123  7670.100  0.500  1.371523  142.409887  36.132269  5.654736
  7680.116  7680.100  0.500  1.364634  142.210979  36.331234  5.723120
  7690.076  7690.100  0.500  1.357741  141.965547  36.519399  5.788500
  7700.069  7700.100  0.500  1.350999  141.585734  36.668069  5.848273
  7710.075  7710.100  0.500  1.344436  141.494492  36.885727  5.921016
  7720.085  7720.100  0.500  1.337940  140.589642  36.888703  5.956211
  7730.080  7730.100  0.500  1.331622  141.112267  37.260507  6.049216
  7740.085  7740.100  0.500  1.325863  137.479512  36.510955  5.955557
  7750.081  7750.100  0.500  1.321068  140.782768  37.567902  6.148994
  7760.093  7760.100  0.500  1.318526  140.589061  37.611715  6.161230
  7762.085  7762.100  0.500  1.318628  140.547356  37.596712  6.155242
  7764.084  7764.100  0.500  1.318919  140.494105  37.571544  6.145709
  7766.083  7766.100  0.500  1.319336  140.442205  37.541978  6.132032
  7768.079  7768.100  0.500  1.320335  140.420012  37.498580  6.112331
  7770.080  7770.100  0.500  1.322074  140.347664  37.414127  6.083337
  7772.080  7772.100  0.500  1.324544  140.322888  37.315251  6.044070
  7774.079  7774.100  0.500  1.327939  140.244408  37.167985  5.988919
  7776.081  7776.100  0.500  1.332883  140.219347  36.978071  5.913223
  7778.080  7778.100  0.500  1.340513  140.186321  36.688359  5.804476
  7780.081  7780.100  0.500  1.351926  140.151465  36.263003  5.645251
  7780.578  7780.600  0.500  1.355552  140.109577  36.120952  5.592914
  7781.079  7781.100  0.500  1.360190  140.109142  35.953673  5.533338
  7781.575  7781.600  0.500  1.365113  140.101777  35.775260  5.467394
  7782.079  7782.100  0.500  1.370846  140.091762  35.568171  5.393322
  7782.573  7782.600  0.500  1.377671  140.072617  35.321438  5.305760
  7783.077  7783.100  0.500  1.385783  140.047919  35.029904  5.203805
  7783.579  7783.600  0.500  1.394976  140.053089  34.710614  5.088658
  7784.083  7784.100  0.500  1.406089  140.044614  34.324939  4.956063
  7784.575  7784.600  0.500  1.418141  140.029012  33.909967  4.815891
  7785.084  7785.100  0.500  1.431025  140.036753  33.477700  4.670576
  7785.586  7785.600  0.500  1.444718  140.000467  33.013874  4.521780
  7786.086  7786.100  0.500  1.458200  139.993481  32.570150  4.378561
  7786.585  7786.600  0.500  1.472477  139.984245  32.106315  4.229337
  7787.085  7787.100  0.500  1.488915  139.968957  31.579434  4.067269
  7787.584  7787.600  0.500  1.508287  139.939893  30.967134  3.882281
  7788.081  7788.100  0.500  1.532177  139.926408  30.233170  3.667399
  7788.578  7788.600  0.500  1.561560  139.906762  29.353616  3.419145
  7789.091  7789.100  0.500  1.598631  139.897826  28.283572  3.130325
  7789.594  7789.600  0.500  1.643991  139.908300  27.031314  2.809875
  7790.091  7790.100  0.500  1.699177  139.907289  25.579788  2.465455
  7790.594  7790.600  0.500  1.768935  139.875700  23.850842  2.090563
  7791.091  7791.100  0.500  1.854618  139.870267  21.891483  1.710074
  7791.586  7791.600  0.500  1.953637  139.834594  19.822613  1.358531
  7792.086  7792.100  0.500  2.061820  139.859039  17.793171  1.060586
  7792.592  7792.600  0.500  2.171883  139.821696  15.934471  0.826524
  7793.092  7793.100  0.500  2.276517  139.820809  14.351360  0.654111
  7793.593  7793.600  0.500  2.368811  139.805865  13.084707  0.534043
  7794.096  7794.100  0.500  2.442606  139.787160  12.152262  0.455500
  7794.591  7794.600  0.500  2.494173  139.782498  11.541097  0.408085
  7795.099  7795.100  0.500  2.527535  139.757429  11.160414  0.379334
  7795.592  7795.600  0.500  2.544249  139.740860  10.974132  0.363694
  7796.090  7796.100  0.500  2.543615  139.735162  10.980646  0.361089
  7796.591  7796.600  0.500  2.523901  139.724283  11.198392  0.373216
  7797.092  7797.100  0.500  2.487619  139.711848  11.611113  0.400707
  7797.593  7797.600  0.500  2.437127  139.691393  12.210652  0.445691
  7798.102  7798.100  0.500  2.376004  139.679890  12.979217  0.509914
  7798.598  7798.600  0.500  2.308830  139.674628  13.880503  0.593601
  7799.102  7799.100  0.500  2.237399  139.651496  14.905813  0.698439
  7799.598  7799.600  0.500  2.169420  139.620252  15.950757  0.815575
  7800.088  7800.100  0.500  2.107916  139.631833  16.963995  0.939008
  7800.600  7800.600  0.500  2.051616  139.612302  17.943962  1.069706
  7801.102  7801.100  0.500  2.002853  139.573857  18.835449  1.197261
  7801.601  7801.600  0.500  1.961743  139.579821  19.626752  1.317033
  7802.107  7802.100  0.500  1.928583  139.592101  20.290280  1.422576
  7802.601  7802.600  0.500  1.903102  139.584394  20.812785  1.510681
  7803.100  7803.100  0.500  1.882708  139.561862  21.238160  1.584860
  7803.599  7803.600  0.500  1.865357  139.555027  21.608826  1.651136
  7804.096  7804.100  0.500  1.851646  139.536859  21.904293  1.706557
  7804.595  7804.600  0.500  1.839902  139.543413  22.164108  1.756990
  7805.100  7805.100  0.500  1.830200  139.510616  22.374914  1.798784
  7805.602  7805.600  0.500  1.822411  139.511040  22.549953  1.835280
  7806.101  7806.100  0.500  1.815902  139.484450  22.692881  1.866239
  7806.603  7806.600  0.500  1.810260  139.474293  22.819603  1.892434
  7807.108  7807.100  0.500  1.805688  139.457020  22.921344  1.914295
  7807.597  7807.600  0.500  1.802526  139.431711  22.989760  1.928716
  7808.097  7808.100  0.500  1.800284  139.410233  23.037809  1.938613
  7808.592  7808.600  0.500  1.798695  139.427478  23.077306  1.944899
  7809.097  7809.100  0.500  1.797642  139.408839  23.098522  1.946649
  7809.597  7809.600  0.500  1.797525  139.381584  23.096722  1.943924
  7810.105  7810.100  0.500  1.797975  139.364837  23.083538  1.937562
  7810.602  7810.600  0.500  1.799071  139.360385  23.057522  1.929101
  7811.100  7811.100  0.500  1.800423  139.348692  23.024447  1.919203
  7811.602  7811.600  0.500  1.801359  139.331243  23.000012  1.911093
  7812.095  7812.100  0.500  1.802591  139.344214  22.973836  1.903414
  7812.593  7812.600  0.500  1.803679  139.320276  22.944912  1.898521
  7813.101  7813.100  0.500  1.804463  139.292802  22.922417  1.896023
  7813.599  7813.600  0.500  1.804954  139.285742  22.910011  1.896307
  7814.104  7814.100  0.500  1.805235  139.281256  22.902818  1.898875
  7814.602  7814.600  0.500  1.805417  139.263110  22.895683  1.903540
  7815.101  7815.100  0.500  1.805462  139.253818  22.893122  1.910123
  7816.092  7816.090  0.500  1.805309  139.231386  22.892934  1.925410
  7817.096  7817.090  0.500  1.804544  139.220303  22.908631  1.942538
  7818.114  7818.110  0.500  1.804714  139.206973  22.902529  1.952738
  7819.174  7819.160  0.500  1.806944  139.176534  22.846521  1.949331
  7820.231  7820.220  0.500  1.812162  139.154965  22.724102  1.927206
  7821.315  7821.300  0.500  1.820106  139.123035  22.539120  1.890252
  7822.417  7822.400  0.500  1.830244  139.107692  22.309327  1.844490
  7823.536  7823.520  0.500  1.841556  139.077705  22.053631  1.792891
  7824.668  7824.660  0.500  1.853727  139.051133  21.782676  1.739616
  7825.813  7825.810  0.500  1.866007  139.046636  21.516112  1.685220
  7827.000  7826.990  0.500  1.877918  139.001227  21.254411  1.628728
  7828.188  7828.180  0.500  1.889335  138.982815  21.010356  1.574731
  7829.403  7829.400  0.500  1.899001  138.953283  20.803831  1.529563
  7830.638  7830.630  0.500  1.905754  138.777803  20.637707  1.495464
  7831.883  7831.880  0.500  1.908542  137.769625  20.430742  1.471227
  7833.153  7833.150  0.500  1.906563  138.774132  20.620485  1.487983
  7834.448  7834.440  0.500  1.900006  138.794808  20.759222  1.510975
  7835.756  7835.750  0.500  1.889880  138.799875  20.971273  1.547524
  7837.088  7837.080  0.500  1.877799  138.783336  21.223626  1.590617
  7838.437  7838.430  0.500  1.864327  138.717958  21.501353  1.637736
  7839.809  7839.800  0.500  1.851622  137.647947  21.608290  1.670931
  7841.185  7841.180  0.500  1.840638  138.596678  21.997538  1.722386
  7842.601  7842.590  0.500  1.831505  138.611859  22.201778  1.756523
  7844.019  7844.010  0.500  1.824291  138.584547  22.358122  1.783542
  7845.454  7845.450  0.500  1.818871  137.861741  22.362392  1.798272
  7846.922  7846.910  0.500  1.814888  138.294925  22.522177  1.823810
  7848.400  7848.390  0.500  1.812284  138.451229  22.606430  1.842815
  7849.894  7849.890  0.500  1.810777  138.437972  22.638345  1.855467
  7851.419  7851.410  0.500  1.809105  138.421902  22.673606  1.866734
  7852.957  7852.950  0.500  1.808142  138.355580  22.684565  1.875205
  7854.519  7854.510  0.500  1.807352  137.302030  22.529619  1.869611
  7856.095  7856.080  0.500  1.807073  138.214541  22.685682  1.889142
  7857.690  7857.680  0.500  1.807273  138.231428  22.683929  1.893479
  7859.305  7859.290  0.500  1.807658  138.208539  22.671432  1.894850
  7860.938  7860.930  0.500  1.808574  138.177032  22.645510  1.893489
  7862.591  7862.580  0.500  1.810113  138.115629  22.600632  1.887972
  7864.260  7864.250  0.500  1.811727  138.115458  22.564157  1.879886
  7865.946  7865.940  0.500  1.813717  138.063133  22.510770  1.866973
  7867.664  7867.650  0.500  1.815796  138.023156  22.457528  1.852119
  7869.391  7869.380  0.500  1.817395  137.975548  22.413903  1.837826
  7871.140  7871.130  0.500  1.818855  137.951009  22.377226  1.823618
  7872.904  7872.890  0.500  1.819688  137.895665  22.349629  1.811114
  7874.689  7874.680  0.500  1.819718  137.860576  22.343261  1.801889
  7876.496  7876.480  0.500  1.819798  137.815593  22.334187  1.794952
  7878.320  7878.310  0.500  1.819857  137.778939  22.326922  1.790810
  7880.158  7880.150  0.500  1.820028  137.737844  22.316461  1.788374
  7882.020  7882.010  0.500  1.820418  137.689139  22.299852  1.788779
  7883.911  7883.890  0.500  1.820611  137.622432  22.284760  1.790112
  7885.794  7885.790  0.500  1.820382  137.587243  22.284162  1.792763
  7887.723  7887.710  0.500  1.820103  137.546968  22.283862  1.796051
  7889.664  7889.650  0.500  1.819584  137.498513  22.287565  1.798507
  7891.622  7891.610  0.500  1.818605  137.441653  22.300185  1.801966
  7893.594  7893.580  0.500  1.817191  137.397833  22.324603  1.806693
  7895.592  7895.580  0.500  1.815843  137.353166  22.347446  1.812281
  7897.603  7897.590  0.500  1.814102  137.292277  22.376473  1.817912
  7899.632  7899.620  0.500  1.812033  136.053080  22.220426  1.808018
  7901.699  7901.680  0.500  1.809878  137.148500  22.447654  1.827983
  7903.756  7903.750  0.500  1.807314  137.124104  22.501287  1.833836
  7905.863  7905.840  0.500  1.804406  137.086254  22.560594  1.840408
  7907.958  7907.950  0.500  1.800786  137.040576  22.634852  1.848690
  7910.101  7910.080  0.500  1.796386  136.984187  22.725324  1.861344
  7912.225  7912.220  0.500  1.792021  136.922629  22.814461  1.877156
  7914.422  7914.390  0.500  1.787853  136.872019  22.901296  1.895898
  7916.559  7916.580  0.500  1.784010  137.353536  23.070348  1.922712
  7918.774  7918.780  0.500  1.780987  137.303836  23.131815  1.942300
  7920.994  7921.000  0.500  1.778870  137.248345  23.171482  1.960730
  7923.242  7923.250  0.500  1.777613  137.212218  23.194503  1.975654
  7925.509  7925.510  0.500  1.776426  137.154212  23.212253  1.985796
  7927.778  7927.790  0.500  1.775983  136.261717  23.071413  1.976346
  7930.095  7930.090  0.500  1.775734  136.917533  23.188223  1.983943
  7932.415  7932.410  0.500  1.776091  136.911599  23.178948  1.977668
  7934.758  7934.750  0.500  1.776451  136.820217  23.155128  1.971919
  7937.113  7937.100  0.500  1.776994  136.603396  23.105893  1.964238
  7939.492  7939.480  0.500  1.777685  131.763288  22.271813  1.889531
  7941.888  7941.870  0.500  1.778489  136.828666  23.109420  1.958369
  7944.299  7944.290  0.500  1.779219  136.731148  23.076102  1.951151
  7946.730  7946.720  0.500  1.779618  136.654172  23.053909  1.942282
  7949.179  7949.170  0.500  1.778885  136.531473  23.050111  1.933362
  7951.665  7951.650  0.500  1.777724  136.186284  23.018524  1.923445
  7954.147  7954.140  0.500  1.775729  136.403619  23.101315  1.925803
  7956.672  7956.650  0.500  1.773066  136.338392  23.151828  1.930791
  7959.184  7959.170  0.500  1.770570  136.256378  23.195732  1.940006
  7961.733  7961.720  0.500  1.767963  136.194873  23.245783  1.953633
  7964.298  7964.290  0.500  1.765887  136.106212  23.278930  1.969510
  7966.880  7966.870  0.500  1.763804  136.009372  23.310871  1.984504
  7969.492  7969.480  0.500  1.761702  135.913965  23.343541  1.997672
  7972.110  7972.100  0.500  1.759797  135.779790  23.364952  2.007453
  7974.763  7974.750  0.500  1.758195  135.633977  23.377298  2.014806
  7977.418  7977.410  0.500  1.756559  135.463379  23.386106  2.019272
  7980.107  7980.090  0.500  1.755011  134.427722  23.243262  2.009031
  7982.798  7982.790  0.500  1.753738  135.241371  23.413751  2.024143
  7985.511  7985.510  0.500  1.752278  135.152914  23.432615  2.025699
  7988.260  7988.250  0.500  1.751010  135.111103  23.455077  2.027725
  7991.014  7991.000  0.500  1.749537  135.046394  23.478415  2.029402
  7993.790  7993.780  0.500  1.747861  134.985471  23.507196  2.031970
  7996.589  7996.570  0.500  1.745790  134.876810  23.536962  2.034181
  7999.406  7999.390  0.500  1.743538  134.814399  23.579116  2.040489
  8002.231  8002.220  0.500  1.740993  134.754364  23.628665  2.049670
  8005.086  8005.070  0.500  1.738481  134.705310  23.679476  2.062088
  8007.959  8007.950  0.500  1.736236  134.725602  23.736267  2.076623
  8010.859  8010.840  0.500  1.734391  134.757677  23.785771  2.090779
  8013.764  8013.750  0.500  1.732509  134.730883  23.825828  2.103120
  8016.677  8016.670  0.500  1.730536  134.684900  23.864734  2.114095
  8019.635  8019.620  0.500  1.728894  134.608539  23.890415  2.121668
  8022.605  8022.590  0.500  1.727207  134.528861  23.916571  2.127324
  8025.576  8025.570  0.500  1.725511  134.463139  23.945464  2.131547
  8028.597  8028.580  0.500  1.724128  134.384757  23.964625  2.133584
  8031.609  8031.600  0.500  1.722758  134.296274  23.981693  2.135371
  8034.656  8034.650  0.500  1.721449  134.217877  23.999086  2.136934
  8037.717  8037.710  0.500  1.720067  134.124898  24.015623  2.138802
  8040.803  8040.790  0.500  1.718574  134.017193  24.032195  2.140696
  8043.896  8043.890  0.500  1.717141  133.935601  24.051995  2.142814
  8047.020  8047.010  0.500  1.715583  133.849685  24.074040  2.145171
  8050.157  8050.150  0.500  1.713534  133.749159  24.105309  2.150180
  8053.311  8053.300  0.500  1.711612  133.595684  24.123974  2.154927
  8056.492  8056.480  0.500  1.709399  133.181177  24.102409  2.157759
  8059.678  8059.670  0.500  1.707171  133.403335  24.196466  2.171507
  8062.901  8062.890  0.500  1.704933  133.480226  24.264652  2.183084
  8066.129  8066.120  0.500  1.702407  133.250877  24.284219  2.190431
  8069.387  8069.370  0.500  1.700310  130.347270  23.804909  2.154572
  8072.671  8072.650  0.500  1.698201  133.192769  24.375932  2.212837
  8075.949  8075.940  0.500  1.696189  132.974093  24.384934  2.221174
  8079.263  8079.250  0.500  1.694250  127.369157  23.402427  2.140018
  8082.591  8082.570  0.500  1.692224  132.950955  24.477539  2.246234
  8085.933  8085.920  0.500  1.690008  132.778242  24.499990  2.252588
  8089.306  8089.290  0.500  1.687776  132.367351  24.478745  2.254402
  8092.688  8092.670  0.500  1.685644  132.589455  24.572150  2.266438
  8096.100  8096.080  0.500  1.683797  132.633943  24.625841  2.273284
  8099.510  8099.500  0.500  1.681549  132.485105  24.653554  2.278061
  8102.965  8102.950  0.500  1.679274  132.383451  24.690757  2.284421
  8106.429  8106.410  0.500  1.676904  132.260141  24.726276  2.291983
  8109.901  8109.890  0.500  1.674362  132.136730  24.766084  2.300764
  8113.405  8113.390  0.500  1.672198  132.042210  24.801995  2.310568
  8116.931  8116.910  0.500  1.669747  131.922271  24.840253  2.321943
  8120.461  8120.450  0.500  1.667387  131.822037  24.880042  2.332694
  8124.016  8124.000  0.500  1.665042  131.700833  24.915515  2.341772
  8127.597  8127.580  0.500  1.662794  131.573314  24.947423  2.350824
  8131.201  8131.180  0.500  1.660808  131.474641  24.978274  2.359102
  8134.806  8134.790  0.500  1.658882  131.337360  25.000287  2.365447
  8138.434  8138.420  0.500  1.657014  131.217622  25.024184  2.371577
  8142.102  8142.080  0.500  1.654728  131.082560  25.055661  2.378366
  8145.765  8145.750  0.500  1.652932  130.976465  25.080383  2.386200
  8149.449  8149.440  0.500  1.651057  130.882690  25.109442  2.395694
  8153.164  8153.150  0.500  1.648886  130.742964  25.137171  2.404397
  8156.897  8156.880  0.500  1.646766  130.610750  25.165045  2.411492
  8160.637  8160.620  0.500  1.644424  130.469834  25.196831  2.418592
  8164.405  8164.390  0.500  1.642015  130.361048  25.236542  2.426319
  8168.198  8168.180  0.500  1.639667  130.211276  25.266805  2.432533
  8171.996  8171.980  0.500  1.637297  130.084264  25.302061  2.440477
  8175.836  8175.810  0.500  1.634894  129.972368  25.341111  2.447324
  8179.662  8179.650  0.500  1.632267  129.797306  25.373549  2.456223
  8183.530  8183.510  0.500  1.629328  129.683484  25.425915  2.466801
  8187.415  8187.390  0.500  1.626795  129.535028  25.461214  2.477331
  8191.310  8191.290  0.500  1.624245  129.409269  25.501448  2.487683
  8195.220  8195.210  0.500  1.621806  129.251965  25.532648  2.498116
  8199.163  8199.150  0.500  1.619360  129.146658  25.574329  2.510093
  8203.132  8203.110  0.500  1.617090  128.989758  25.601287  2.520486
  8207.095  8207.080  0.500  1.614805  128.847466  25.631549  2.531186
  8211.101  8211.080  0.500  1.612329  128.711318  25.667950  2.541659
  8215.115  8215.090  0.500  1.609869  128.554291  25.699785  2.551540
  8219.156  8219.130  0.500  1.607510  128.395019  25.728553  2.563615
  8223.203  8223.180  0.500  1.605231  128.249803  25.758096  2.574032
  8227.264  8227.250  0.500  1.602646  128.108514  25.796324  2.586178
  8231.352  8231.340  0.500  1.600141  127.944654  25.827949  2.596652
  8235.496  8235.450  0.500  1.597642  127.793398  25.861959  2.605260
  8239.639  8239.580  0.500  1.594964  127.642591  25.900690  2.613049
  8243.780  8243.730  0.500  1.592403  127.506968  25.939522  2.621422
  8247.905  8247.890  0.500  1.589824  127.329632  25.970336  2.628117
  8252.082  8252.080  0.500  1.587209  127.180961  26.007941  2.635710
  8256.341  8256.280  0.500  1.584463  127.018254  26.046090  2.644470
  8260.500  8260.510  0.500  1.581865  126.890756  26.087632  2.656741
  8264.742  8264.750  0.500  1.579288  126.711604  26.118027  2.666681
  8268.988  8269.010  0.500  1.576626  126.537445  26.151662  2.677763
  8273.316  8273.290  0.500  1.574221  126.372375  26.180429  2.689154
  8277.603  8277.590  0.500  1.571704  125.826444  26.133009  2.693232
  8281.899  8281.910  0.500  1.569169  125.989160  26.233228  2.711082
  8286.305  8286.250  0.500  1.566529  125.841585  26.271766  2.723964
  8290.586  8290.610  0.500  1.564078  125.663358  26.298950  2.733845
  8295.046  8294.990  0.500  1.561484  125.464503  26.325535  2.744538
  8299.369  8299.380  0.500  1.559035  125.309486  26.357474  2.756119
  8303.782  8303.800  0.500  1.556452  125.116009  26.384830  2.768066
  8308.215  8308.230  0.500  1.553857  124.904915  26.408772  2.779548
  8312.656  8312.680  0.500  1.551115  124.526330  26.401000  2.786920
  8317.128  8317.150  0.500  1.548298  124.305459  26.428530  2.796185
  8321.626  8321.640  0.500  1.545554  122.790927  26.178253  2.775526
  8326.135  8326.150  0.500  1.542801  124.139588  26.538736  2.819520
  8330.732  8330.680  0.500  1.540015  123.959752  26.574232  2.826486
  8335.261  8335.230  0.500  1.537310  123.596523  26.568124  2.829891
