# XDI/1.0 BlueSky/1.10.0 BMM/2023-1.0-py310-tiled
# Beamline.name: BMM (06BM) -- Beamline for Materials Measurement (NIST)
# Beamline.xray_source: NSLS-II three-pole wiggler
# Beamline.collimation: paraboloid mirror, 5 nm Rh on 30 nm Pt
# Beamline.focusing: not in use
# Beamline.harmonic_rejection: flat mirror, Si stripe, pitch = 7.0 mrad relative to beam
# Beamline.software: Bluesky 1.10.0, Ophyd 1.7.0, DataBroker 2.0.0b13, Python 3.10.8, 2023-1.0-py310-tiled
# Detector.I0: 10 cm N2
# Detector.I1: 25 cm N2
# Detector.I2: 25 cm N2
# Element.symbol: Eu
# Element.edge: L3
# Element.reference: Eu
# Element.reference_material: Eu2O3
# Facility.name: NSLS-II
# Facility.energy: 3.0
# Facility.current: 400.6
# Facility.mode: top-off
# Facility.GUP: 123456
# Facility.SAF: 301027
# Facility.cycle: 2023-2
# Mono.name: Si(111)
# Mono.d_spacing: 3.1351860
# Mono.encoder_resolution: 0.0000050 deg/ct
# Mono.angle_offset: 16.0754326 deg
# Mono.scan_mode: pseudo channel cut
# Mono.scan_type: step
# Mono.direction: forward in energy
# Sample.name: Eu2Ti2O7
# Sample.prep: powder on tape
# Sample.x: 123.848 mm
# Sample.y: 114.690 mm
# Sample.SDD_position: 205.000 mm
# Scan.experimenters: Bruce Ravel
# Scan.edge_energy: 6976.9
# Scan.start_time: 2023-05-08T17:34:06
# Scan.end_time: 2023-05-08T17:40:12
# Scan.transient_id: 75451
# Scan.uid: fa181008-7ffb-4c29-aee5-fc1453098621
# Scan.plot_hint: ln(I0/It)  --  ln($5/$6)
# Column.1: energy eV
# Column.2: requested_energy eV
# Column.3: measurement_time seconds
# Column.4: xmu 
# Column.5: I0 nA
# Column.6: It nA
# Column.7: Ir nA
# ///////////
# material made by Fatih Dogan
# -----------
# energy  requested_energy  measurement_time  xmu  I0  It  Ir
  6776.904  6776.900  0.500  1.025868  151.810515  54.421807  13.398709
  6786.910  6786.900  0.500  1.018298  151.995360  54.902133  13.602152
  6796.915  6796.900  0.500  1.010812  151.052771  54.971622  13.702645
  6806.904  6806.900  0.500  1.003474  151.903688  55.688437  13.968064
  6816.982  6816.900  0.500  0.996072  151.950783  56.119589  14.160958
  6826.930  6826.900  0.500  0.988850  151.848095  56.488130  14.341930
  6836.906  6836.900  0.500  0.981688  152.134032  57.001281  14.557538
  6846.918  6846.900  0.500  0.974442  151.784977  57.284076  14.718649
  6856.912  6856.900  0.500  0.967509  152.010886  57.768489  14.929893
  6866.912  6866.900  0.500  0.960447  152.194985  58.248341  15.143026
  6876.916  6876.900  0.500  0.953360  152.383401  58.735247  15.360527
  6886.914  6886.900  0.500  0.946318  152.473937  59.185464  15.567788
  6896.911  6896.900  0.500  0.939338  152.588945  59.644969  15.778612
  6906.910  6906.900  0.500  0.932723  152.621400  60.053619  15.978210
  6916.913  6916.900  0.500  0.925880  152.526235  60.428242  16.165234
  6926.903  6926.900  0.500  0.919352  152.470744  60.801866  16.352777
  6936.914  6936.900  0.500  0.913040  152.447674  61.177607  16.535120
  6946.909  6946.900  0.500  0.907536  152.476197  61.526749  16.693205
  6948.899  6948.900  0.500  0.906566  152.471683  61.584648  16.721494
  6950.906  6950.900  0.500  0.905649  152.482733  61.645626  16.746403
  6952.899  6952.900  0.500  0.904781  152.486768  61.700819  16.767408
  6954.898  6954.900  0.500  0.904191  152.486586  61.737150  16.779029
  6956.901  6956.900  0.500  0.903841  152.484708  61.758003  16.782761
  6958.898  6958.900  0.500  0.903727  152.483709  61.764654  16.778633
  6960.897  6960.900  0.500  0.903665  152.508100  61.778349  16.769323
  6962.898  6962.900  0.500  0.904536  152.494735  61.719152  16.726692
  6964.899  6964.900  0.500  0.906054  152.482972  61.620748  16.656933
  6966.899  6966.900  0.500  0.908850  152.490596  61.451768  16.537856
  6967.386  6967.400  0.500  0.910044  152.495434  61.380395  16.492442
  6967.883  6967.900  0.500  0.911127  152.487905  61.310959  16.442765
  6968.383  6968.400  0.500  0.912463  152.491859  61.230688  16.387156
  6968.882  6968.900  0.500  0.914497  152.484506  61.103293  16.310457
  6969.388  6969.400  0.500  0.916647  152.495839  60.976582  16.229738
  6969.887  6969.900  0.500  0.918903  152.499395  60.840610  16.143580
  6970.387  6970.400  0.500  0.920889  152.487700  60.715250  16.064008
  6970.885  6970.900  0.500  0.923211  152.475570  60.569646  15.978220
  6971.386  6971.400  0.500  0.925946  152.472485  60.402952  15.880097
  6971.886  6971.900  0.500  0.928737  152.475732  60.235898  15.767941
  6972.390  6972.400  0.500  0.932799  152.481987  59.994159  15.622203
  6972.884  6972.900  0.500  0.937824  152.482832  59.693767  15.440486
  6973.390  6973.400  0.500  0.944482  152.473767  59.294126  15.210480
  6973.888  6973.900  0.500  0.952251  152.480728  58.837976  14.943112
  6974.389  6974.400  0.500  0.960828  152.473297  58.332611  14.652799
  6974.893  6974.900  0.500  0.970716  152.473191  57.758619  14.332544
  6975.389  6975.400  0.500  0.982460  152.469773  57.083028  13.963977
  6975.890  6975.900  0.500  0.996993  152.468250  56.258840  13.526010
  6976.392  6976.400  0.500  1.014717  152.455723  55.265940  13.011931
  6976.889  6976.900  0.500  1.036224  152.448772  54.087571  12.414628
  6977.396  6977.400  0.500  1.064921  152.443337  52.555590  11.667482
  6977.888  6977.900  0.500  1.100529  152.429045  50.712404  10.803822
  6978.397  6978.400  0.500  1.145352  152.419208  48.486375  9.814190
  6978.898  6978.900  0.500  1.200672  152.418507  45.876727  8.726415
  6979.389  6979.400  0.500  1.266461  152.427961  42.958359  7.603248
  6979.890  6979.900  0.500  1.343057  152.423790  39.789666  6.487543
  6980.391  6980.400  0.500  1.419932  152.405992  36.841174  5.544285
  6980.888  6980.900  0.500  1.490642  152.416579  34.328476  4.813185
  6981.396  6981.400  0.500  1.553821  152.407484  32.224818  4.242420
  6981.895  6981.900  0.500  1.604309  152.401327  30.637002  3.834031
  6982.398  6982.400  0.500  1.636730  152.397185  29.658842  3.588971
  6982.900  6982.900  0.500  1.649067  152.402748  29.296261  3.495562
  6983.395  6983.400  0.500  1.640848  152.400321  29.537554  3.550886
  6983.891  6983.900  0.500  1.613778  152.398996  30.347813  3.754920
  6984.392  6984.400  0.500  1.572221  152.386491  31.632940  4.092657
  6984.894  6984.900  0.500  1.522634  152.386166  33.240994  4.534692
  6985.396  6985.400  0.500  1.466148  152.386581  35.172779  5.086134
  6985.896  6985.900  0.500  1.408534  152.379256  37.256967  5.707460
  6986.400  6986.400  0.500  1.353682  152.391290  39.360760  6.362418
  6986.900  6986.900  0.500  1.305255  152.400355  41.316246  6.998492
  6987.394  6987.400  0.500  1.264187  152.391158  43.045755  7.587706
  6987.896  6987.900  0.500  1.228903  152.400405  44.594419  8.138116
  6988.396  6988.400  0.500  1.200549  152.403590  45.877882  8.614209
  6988.895  6988.900  0.500  1.178865  152.388795  46.878992  9.002547
  6989.391  6989.400  0.500  1.161905  152.396286  47.683213  9.324489
  6989.896  6989.900  0.500  1.148682  152.395991  48.317823  9.590553
  6990.400  6990.400  0.500  1.138251  152.382431  48.820122  9.806634
  6990.897  6990.900  0.500  1.130120  152.385376  49.219624  9.975965
  6991.395  6991.400  0.500  1.122823  152.380789  49.578618  10.124402
  6991.898  6991.900  0.500  1.116089  152.368033  49.909430  10.253818
  6992.399  6992.400  0.500  1.110217  152.370587  50.204198  10.369106
  6992.900  6992.900  0.500  1.105038  152.368069  50.464047  10.466404
  6993.405  6993.400  0.500  1.100231  152.371208  50.708271  10.555748
  6993.898  6993.900  0.500  1.096094  152.359148  50.914446  10.631253
  6994.395  6994.400  0.500  1.092405  152.355983  51.101570  10.697268
  6994.900  6994.900  0.500  1.089658  152.361179  51.243843  10.746940
  6995.404  6995.400  0.500  1.087659  152.355220  51.344405  10.782537
  6995.903  6995.900  0.500  1.086155  152.349514  51.419740  10.805909
  6996.407  6996.400  0.500  1.085302  152.356373  51.465934  10.822586
  6996.900  6996.900  0.500  1.084926  152.348823  51.482723  10.829497
  6997.401  6997.400  0.500  1.085156  152.345297  51.469705  10.827590
  6997.905  6997.900  0.500  1.086136  152.335816  51.416113  10.818446
  6998.399  6998.400  0.500  1.087652  152.335577  51.338109  10.804571
  6998.900  6998.900  0.500  1.089771  152.327705  51.226813  10.787904
  6999.402  6999.400  0.500  1.092064  152.327762  51.109519  10.769131
  6999.902  6999.900  0.500  1.094847  152.325822  50.966836  10.746283
  7000.404  7000.400  0.500  1.097767  152.320037  50.816274  10.724470
  7000.900  7000.900  0.500  1.100604  152.314199  50.670386  10.704288
  7001.402  7001.400  0.500  1.103419  152.320192  50.529918  10.684075
  7001.903  7001.900  0.500  1.105625  152.317680  50.417732  10.669939
  7002.889  7002.890  0.500  1.109248  152.308567  50.232422  10.645350
  7003.902  7003.890  0.500  1.110302  152.305195  50.178370  10.639266
  7004.912  7004.910  0.500  1.110158  152.309631  50.187086  10.629933
  7005.967  7005.960  0.500  1.109612  152.287321  50.207151  10.602333
  7007.023  7007.020  0.500  1.110303  152.286268  50.172113  10.539411
  7008.111  7008.100  0.500  1.112389  152.273693  50.063413  10.445637
  7009.205  7009.200  0.500  1.116053  152.262900  49.876769  10.319599
  7010.332  7010.320  0.500  1.120188  152.246634  49.665682  10.185573
  7011.469  7011.460  0.500  1.124894  152.241137  49.430722  10.045768
  7012.612  7012.610  0.500  1.129810  152.235784  49.186552  9.912331
  7013.807  7013.790  0.500  1.134974  152.228567  48.930923  9.783994
  7014.986  7014.980  0.500  1.139099  152.221808  48.727300  9.680085
  7016.208  7016.200  0.500  1.142006  152.203240  48.579936  9.608290
  7017.438  7017.430  0.500  1.143563  152.198673  48.502916  9.571604
  7018.691  7018.680  0.500  1.143436  152.194462  48.507719  9.577467
  7019.951  7019.950  0.500  1.141070  152.183635  48.619185  9.627156
  7021.245  7021.240  0.500  1.137571  152.191458  48.792103  9.710953
  7022.557  7022.550  0.500  1.132449  152.179748  49.038855  9.820962
  7023.885  7023.880  0.500  1.126365  152.149504  49.328346  9.949259
  7025.244  7025.230  0.500  1.119911  152.146285  49.646653  10.089880
  7026.613  7026.600  0.500  1.113098  152.137196  49.983094  10.231332
  7027.987  7027.980  0.500  1.106500  152.135574  50.313408  10.366917
  7029.399  7029.390  0.500  1.100545  152.699605  50.801609  10.529089
  7030.821  7030.810  0.500  1.095636  152.664035  51.039690  10.627240
  7032.261  7032.250  0.500  1.091798  152.666572  51.236796  10.712585
  7033.719  7033.710  0.500  1.088833  152.658427  51.386224  10.779983
  7035.205  7035.190  0.500  1.086816  152.643124  51.484796  10.832853
  7036.704  7036.690  0.500  1.085555  152.648198  51.551476  10.871362
  7038.219  7038.210  0.500  1.085100  152.648431  51.575024  10.895638
  7039.755  7039.750  0.500  1.085527  152.639653  51.550031  10.904828
  7041.322  7041.310  0.500  1.086516  152.627876  51.495083  10.902884
  7042.891  7042.880  0.500  1.087778  152.610754  51.424368  10.895744
  7044.492  7044.480  0.500  1.089864  152.610810  51.317274  10.875559
  7046.099  7046.090  0.500  1.092192  152.581509  51.188117  10.845182
  7047.737  7047.730  0.500  1.095097  152.562530  51.033271  10.804342
  7049.389  7049.380  0.500  1.097154  152.560434  50.927690  10.769728
  7051.063  7051.050  0.500  1.097585  152.563618  50.906822  10.751823
  7052.749  7052.740  0.500  1.096844  152.559353  50.943107  10.742035
  7054.460  7054.450  0.500  1.095120  152.557014  51.030222  10.742018
  7056.192  7056.180  0.500  1.093245  152.561113  51.127367  10.743775
  7057.943  7057.930  0.500  1.091340  152.545642  51.219702  10.746810
  7059.708  7059.690  0.500  1.089070  152.543569  51.335377  10.759299
  7061.493  7061.480  0.500  1.086431  152.541105  51.470191  10.779801
  7063.293  7063.280  0.500  1.083457  151.866150  51.395068  10.759723
  7065.120  7065.110  0.500  1.080427  152.415266  51.737420  10.833951
  7066.973  7066.950  0.500  1.077931  152.429992  51.871739  10.867814
  7068.802  7068.810  0.500  1.076679  152.379109  51.919414  10.889779
  7070.689  7070.690  0.500  1.076211  152.034632  51.826300  10.886756
  7072.588  7072.590  0.500  1.076889  152.339622  51.895047  10.917205
  7074.513  7074.510  0.500  1.077920  152.163679  51.781692  10.913301
  7076.458  7076.450  0.500  1.078491  152.170478  51.754443  10.924870
  7078.417  7078.410  0.500  1.079013  152.291582  51.768624  10.947424
  7080.395  7080.380  0.500  1.078913  152.298400  51.776104  10.966356
  7082.388  7082.380  0.500  1.077614  151.910280  51.711273  10.970810
  7084.408  7084.390  0.500  1.075532  152.109870  51.887155  11.025447
  7086.429  7086.420  0.500  1.072770  152.181743  52.055250  11.077890
  7088.488  7088.480  0.500  1.070160  152.186055  52.192759  11.125301
  7090.556  7090.550  0.500  1.067797  152.165167  52.309070  11.170609
  7092.650  7092.640  0.500  1.065540  152.134256  52.416612  11.217083
  7094.759  7094.750  0.500  1.063149  152.116992  52.536139  11.267627
  7096.889  7096.880  0.500  1.060407  152.097290  52.673566  11.324393
  7099.031  7099.020  0.500  1.057172  152.084585  52.839782  11.386003
  7101.191  7101.190  0.500  1.054054  152.074525  53.001320  11.451965
  7103.389  7103.380  0.500  1.051588  152.050861  53.123917  11.508613
  7105.584  7105.580  0.500  1.049805  152.024505  53.209480  11.556426
  7107.809  7107.800  0.500  1.049224  151.995954  53.230410  11.586271
  7110.061  7110.050  0.500  1.049437  151.936282  53.198194  11.597357
  7112.314  7112.310  0.500  1.049775  151.752289  53.115794  11.587855
  7114.598  7114.590  0.500  1.049914  151.650459  53.072809  11.578141
  7116.900  7116.890  0.500  1.050283  151.619766  53.042441  11.565220
  7119.215  7119.210  0.500  1.049901  151.511796  53.024932  11.554749
  7121.563  7121.550  0.500  1.049060  151.415108  53.035682  11.554261
  7123.912  7123.900  0.500  1.048068  151.331665  53.059072  11.552043
  7126.288  7126.280  0.500  1.046535  151.204605  53.095850  11.553163
  7128.685  7128.670  0.500  1.044731  151.059390  53.140624  11.560170
  7131.100  7131.090  0.500  1.043132  150.864923  53.157147  11.564566
  7133.531  7133.520  0.500  1.041127  150.791164  53.237809  11.585031
  7135.981  7135.970  0.500  1.038942  150.789317  53.353613  11.622860
  7138.456  7138.450  0.500  1.036499  150.778594  53.480289  11.667848
  7140.955  7140.940  0.500  1.034244  150.784661  53.603183  11.718244
  7143.461  7143.450  0.500  1.030985  150.781756  53.777122  11.785878
  7145.980  7145.970  0.500  1.028643  150.785457  53.904566  11.848365
  7148.528  7148.520  0.500  1.026475  150.780605  54.019809  11.907715
  7151.102  7151.090  0.500  1.024563  150.762106  54.116562  11.957091
  7153.682  7153.670  0.500  1.023021  150.747726  54.194885  11.998900
  7156.290  7156.280  0.500  1.021665  150.728913  54.261637  12.034473
  7158.912  7158.900  0.500  1.020609  150.713647  54.313508  12.063303
  7161.563  7161.550  0.500  1.019509  150.663085  54.355022  12.087192
  7164.221  7164.210  0.500  1.018697  150.599581  54.376228  12.104423
  7166.900  7166.890  0.500  1.017925  150.535104  54.394975  12.122852
  7169.598  7169.590  0.500  1.017299  150.472411  54.406317  12.137803
  7172.321  7172.310  0.500  1.015608  150.419871  54.479410  12.168794
  7175.065  7175.050  0.500  1.013636  150.364936  54.567005  12.203573
  7177.812  7177.800  0.500  1.011599  150.339958  54.669170  12.244427
  7180.591  7180.580  0.500  1.009624  150.307755  54.765515  12.285200
  7183.382  7183.370  0.500  1.008005  150.262351  54.837701  12.322590
  7186.205  7186.190  0.500  1.006070  150.218964  54.928065  12.370646
  7189.030  7189.020  0.500  1.003779  150.200091  55.047094  12.420778
  7191.880  7191.870  0.500  1.001501  147.869829  54.316679  12.282735
  7194.761  7194.750  0.500  0.999333  149.955162  55.202224  12.509391
  7197.653  7197.640  0.500  0.996872  149.951183  55.336795  12.566520
  7200.563  7200.550  0.500  0.994373  149.894549  55.454279  12.615242
  7203.484  7203.470  0.500  0.992146  149.839244  55.557418  12.657825
  7206.429  7206.420  0.500  0.990219  149.763040  55.636265  12.692255
  7209.399  7209.390  0.500  0.988835  149.686281  55.684788  12.716815
  7212.379  7212.370  0.500  0.987067  149.612832  55.755951  12.744486
  7215.396  7215.380  0.500  0.985441  149.534651  55.817485  12.770936
  7218.409  7218.400  0.500  0.983717  149.470715  55.889889  12.797872
  7221.463  7221.450  0.500  0.982091  149.390994  55.950993  12.827148
  7224.521  7224.510  0.500  0.980475  149.314851  56.012909  12.855738
  7227.600  7227.590  0.500  0.979029  147.160570  55.284654  12.706361
  7230.701  7230.690  0.500  0.977435  149.343006  56.194060  12.935591
  7233.823  7233.810  0.500  0.975677  149.270557  56.265615  12.975502
  7236.961  7236.950  0.500  0.973272  149.197836  56.373620  13.025547
  7240.116  7240.100  0.500  0.970940  149.150789  56.487403  13.078547
  7243.295  7243.280  0.500  0.968412  149.074732  56.601511  13.132113
  7246.484  7246.470  0.500  0.965771  148.830674  56.658311  13.171986
  7249.701  7249.690  0.500  0.963304  148.912843  56.829570  13.238988
  7252.927  7252.920  0.500  0.961050  148.681443  56.869325  13.276334
  7256.177  7256.170  0.500  0.958741  148.967251  57.110343  13.361501
  7259.456  7259.450  0.500  0.956833  148.726829  57.127068  13.391626
  7262.747  7262.740  0.500  0.954907  147.129667  56.622566  13.299597
  7266.059  7266.050  0.500  0.952876  148.274151  57.179033  13.451949
  7269.382  7269.370  0.500  0.951031  149.131050  57.615677  13.576351
  7272.734  7272.720  0.500  0.949551  148.891921  57.608448  13.595255
  7276.101  7276.090  0.500  0.947983  149.136256  57.793539  13.659678
  7279.482  7279.470  0.500  0.946175  149.045700  57.862999  13.697354
  7282.889  7282.880  0.500  0.944046  148.931072  57.941724  13.737051
  7286.308  7286.300  0.500  0.942222  148.716167  57.963746  13.768597
  7289.754  7289.750  0.500  0.940338  148.774143  58.095683  13.825427
  7293.214  7293.210  0.500  0.938218  148.730700  58.201976  13.879707
  7296.695  7296.690  0.500  0.935959  148.644971  58.299973  13.931418
  7300.194  7300.190  0.500  0.933536  148.367302  58.332239  13.970297
  7303.719  7303.710  0.500  0.931057  148.671585  58.596964  14.065077
  7307.256  7307.250  0.500  0.928485  148.566964  58.706501  14.116413
  7310.813  7310.800  0.500  0.925565  148.483964  58.845298  14.178622
  7314.391  7314.380  0.500  0.922824  148.386140  58.967921  14.234690
  7317.990  7317.980  0.500  0.920606  148.310839  59.068861  14.285893
  7321.598  7321.590  0.500  0.918138  148.232433  59.183534  14.337662
  7325.229  7325.220  0.500  0.915733  148.171907  59.301832  14.391426
  7328.884  7328.880  0.500  0.913567  148.095645  59.399808  14.440917
  7332.556  7332.550  0.500  0.911449  148.016362  59.493931  14.487869
  7336.244  7336.240  0.500  0.909354  147.953581  59.593380  14.537153
  7339.956  7339.950  0.500  0.907189  147.024411  59.347479  14.500270
  7343.686  7343.680  0.500  0.905025  147.719192  59.757118  14.627531
  7347.426  7347.420  0.500  0.902983  147.665082  59.857308  14.681170
  7351.199  7351.190  0.500  0.900760  147.598294  59.963394  14.734338
  7354.986  7354.980  0.500  0.898709  147.534919  60.060738  14.790021
  7358.785  7358.780  0.500  0.896491  147.455277  60.161570  14.845597
  7362.622  7362.610  0.500  0.894380  147.382582  60.258965  14.901038
  7366.464  7366.450  0.500  0.892004  147.287475  60.363380  14.959266
  7370.323  7370.310  0.500  0.889451  147.216543  60.488546  15.023994
  7374.205  7374.190  0.500  0.886930  147.134372  60.607371  15.086614
  7378.103  7378.090  0.500  0.884554  147.032217  60.709357  15.146084
  7382.024  7382.010  0.500  0.881860  146.946722  60.837723  15.211394
  7385.963  7385.950  0.500  0.879466  146.853210  60.944767  15.271182
  7389.932  7389.910  0.500  0.876876  146.781401  61.072908  15.336480
  7393.901  7393.880  0.500  0.874159  146.713367  61.210663  15.405164
  7397.895  7397.880  0.500  0.871571  146.619682  61.330125  15.467448
  7401.924  7401.890  0.500  0.869215  146.518510  61.432361  15.525011
  7405.962  7405.930  0.500  0.866756  146.418482  61.541569  15.583635
  7410.002  7409.980  0.500  0.864649  146.317164  61.628726  15.635772
  7414.064  7414.050  0.500  0.862563  146.196638  61.706547  15.684634
  7418.155  7418.140  0.500  0.860307  146.089387  61.800518  15.739425
  7422.263  7422.250  0.500  0.857922  145.999228  61.909878  15.796796
  7426.379  7426.380  0.500  0.855602  145.904647  62.013461  15.856335
  7430.527  7430.530  0.500  0.853141  145.779477  62.112940  15.916489
  7434.706  7434.690  0.500  0.850663  145.679833  62.224475  15.977978
  7438.910  7438.880  0.500  0.848306  145.550280  62.315860  16.037474
  7443.111  7443.080  0.500  0.845597  145.350936  62.399315  16.096776
  7447.342  7447.310  0.500  0.842482  145.395687  62.613225  16.188144
  7451.545  7451.550  0.500  0.839678  145.091051  62.657513  16.235200
  7455.836  7455.810  0.500  0.836986  145.127064  62.841973  16.319169
  7460.080  7460.090  0.500  0.834499  142.963240  62.059192  16.153441
  7464.381  7464.390  0.500  0.831572  144.877839  63.074647  16.455443
  7468.704  7468.710  0.500  0.829225  144.785288  63.182465  16.519292
  7473.053  7473.050  0.500  0.826676  144.741001  63.324341  16.596287
  7477.399  7477.410  0.500  0.824027  144.577353  63.420514  16.658664
  7481.825  7481.790  0.500  0.821510  144.439560  63.519757  16.723209
  7486.167  7486.180  0.500  0.819471  144.294572  63.585554  16.775987
  7490.592  7490.600  0.500  0.816934  144.137496  63.677667  16.834748
  7495.019  7495.030  0.500  0.814228  144.030142  63.802666  16.902545
  7499.474  7499.480  0.500  0.811837  143.884251  63.890609  16.960080
  7503.935  7503.950  0.500  0.809622  143.745746  63.970603  17.017843
  7508.421  7508.440  0.500  0.806940  143.571627  64.064759  17.078152
  7512.944  7512.950  0.500  0.804415  143.422111  64.159826  17.144021
  7517.467  7517.480  0.500  0.801613  143.282418  64.277155  17.215605
  7522.006  7522.030  0.500  0.798776  143.123879  64.388448  17.289797
  7526.581  7526.600  0.500  0.795993  142.992373  64.508557  17.363016
  7531.165  7531.180  0.500  0.793231  142.828169  64.612743  17.436803
  7535.782  7535.790  0.500  0.790432  142.662149  64.718518  17.509595
  7540.389  7540.410  0.500  0.787520  142.513392  64.839592  17.586761
  7545.098  7545.060  0.500  0.784873  142.352106  64.937865  17.657749
  7549.741  7549.720  0.500  0.782231  142.285171  65.078998  17.738052
  7554.413  7554.400  0.500  0.779625  142.545579  65.368269  17.859853
  7559.117  7559.100  0.500  0.777004  142.402350  65.473976  17.931108
  7563.833  7563.820  0.500  0.774345  142.233815  65.570586  17.998217
  7568.571  7568.560  0.500  0.771368  142.063259  65.687219  18.072107
  7573.335  7573.310  0.500  0.768688  141.915039  65.794757  18.138942
  7578.106  7578.090  0.500  0.766021  141.738009  65.888220  18.204038
  7582.909  7582.890  0.500  0.763440  141.558111  65.974606  18.267678
  7587.717  7587.700  0.500  0.760966  141.348241  66.040032  18.323288
  7592.543  7592.530  0.500  0.758699  141.136191  66.090579  18.373724
