# XDI/1.0 BlueSky/1.10.0 BMM/2023-1.0-py310-tiled
# Beamline.name: BMM (06BM) -- Beamline for Materials Measurement (NIST)
# Beamline.xray_source: NSLS-II three-pole wiggler
# Beamline.collimation: paraboloid mirror, 5 nm Rh on 30 nm Pt
# Beamline.focusing: not in use
# Beamline.harmonic_rejection: flat mirror, Pt stripe, pitch = 7.0 mrad relative to beam
# Beamline.software: Bluesky 1.10.0, Ophyd 1.7.0, DataBroker 2.0.0b13, Python 3.10.8, 2023-1.0-py310-tiled
# Detector.I0: 10 cm N2
# Detector.I1: 25 cm N2
# Detector.I2: 25 cm N2
# Element.symbol: Eu
# Element.edge: L1
# Element.reference: Eu
# Element.reference_material: Eu2O3
# Facility.name: NSLS-II
# Facility.energy: 3.0
# Facility.current: 399.7
# Facility.mode: top-off
# Facility.GUP: 123456
# Facility.SAF: 301027
# Facility.cycle: 2023-2
# Mono.name: Si(111)
# Mono.d_spacing: 3.1351860
# Mono.encoder_resolution: 0.0000050 deg/ct
# Mono.angle_offset: 16.0754326 deg
# Mono.scan_mode: pseudo channel cut
# Mono.scan_type: step
# Mono.direction: forward in energy
# Sample.name: EuTiO3
# Sample.prep: powder on tape
# Sample.x: 123.848 mm
# Sample.y: 114.690 mm
# Sample.SDD_position: 205.000 mm
# Scan.experimenters: Bruce Ravel
# Scan.edge_energy: 8052.0
# Scan.start_time: 2023-05-08T21:16:24
# Scan.end_time: 2023-05-08T21:22:07
# Scan.transient_id: 75620
# Scan.uid: 0175248d-1dd9-40d1-bf32-ab81e7edd67c
# Scan.plot_hint: ln(I0/It)  --  ln($5/$6)
# Column.1: energy eV
# Column.2: requested_energy eV
# Column.3: measurement_time seconds
# Column.4: xmu 
# Column.5: I0 nA
# Column.6: It nA
# Column.7: Ir nA
# ///////////
# material made by Fatih Dogan
# -----------
# energy  requested_energy  measurement_time  xmu  I0  It  Ir
  7852.003  7852.000  0.500  0.478305  135.767919  84.153450  22.705329
  7862.010  7862.000  0.500  0.473595  135.557198  84.419507  22.845941
  7872.022  7872.000  0.500  0.469511  135.359638  84.641424  22.993435
  7882.060  7882.000  0.500  0.465963  135.179162  84.829055  23.148429
  7892.101  7892.000  0.500  0.462166  134.936882  84.999167  23.304882
  7902.040  7902.000  0.500  0.458026  134.766294  85.243883  23.478354
  7912.065  7912.000  0.500  0.453668  134.571877  85.492655  23.640082
  7922.016  7922.000  0.500  0.449351  134.368718  85.732864  23.793999
  7932.014  7932.000  0.500  0.445387  134.077519  85.886896  23.938423
  7942.036  7942.000  0.500  0.441776  134.061693  86.187382  24.129623
  7952.019  7952.000  0.500  0.437794  133.552059  86.202330  24.232332
  7962.018  7962.000  0.500  0.434047  133.526017  86.509039  24.416443
  7972.021  7972.000  0.500  0.430219  133.284963  86.684062  24.551843
  7982.025  7982.000  0.500  0.426410  133.051125  86.862276  24.691704
  7992.014  7992.000  0.500  0.422453  132.844891  87.071422  24.845968
  8002.015  8002.000  0.500  0.418375  132.586414  87.257121  24.997174
  8011.987  8012.000  0.500  0.415007  132.430046  87.448294  25.152696
  8022.010  8022.000  0.500  0.411599  132.388333  87.719201  25.328159
  8024.009  8024.000  0.500  0.411055  132.306405  87.712590  25.341369
  8026.001  8026.000  0.500  0.410189  132.247832  87.749722  25.372033
  8028.001  8028.000  0.500  0.409490  132.190892  87.773286  25.396088
  8030.001  8030.000  0.500  0.408773  132.152398  87.810671  25.423562
  8031.995  8032.000  0.500  0.408099  132.092031  87.829745  25.443880
  8033.999  8034.000  0.500  0.407496  132.024885  87.837995  25.462207
  8035.996  8036.000  0.500  0.407122  131.967903  87.832945  25.474458
  8037.994  8038.000  0.500  0.406697  131.911362  87.832652  25.490051
  8040.001  8040.000  0.500  0.406397  131.880952  87.838736  25.505831
  8041.998  8042.000  0.500  0.406438  131.818197  87.793364  25.499663
  8042.479  8042.500  0.500  0.406382  131.757456  87.757789  25.490700
  8042.977  8043.000  0.500  0.406707  131.769145  87.737085  25.487794
  8043.481  8043.500  0.500  0.406669  131.742918  87.722907  25.483823
  8043.979  8044.000  0.500  0.406776  131.749983  87.718255  25.487076
  8044.483  8044.500  0.500  0.406971  131.750246  87.701330  25.481961
  8044.981  8045.000  0.500  0.407275  131.699129  87.640662  25.463533
  8045.483  8045.500  0.500  0.407644  131.679307  87.595094  25.451171
  8045.984  8046.000  0.500  0.408113  131.666772  87.545693  25.435398
  8046.485  8046.500  0.500  0.408814  131.638413  87.465581  25.412063
  8046.987  8047.000  0.500  0.409641  131.599874  87.367631  25.383578
  8047.480  8047.500  0.500  0.410492  131.566526  87.271214  25.354427
  8047.979  8048.000  0.500  0.411289  131.569781  87.203876  25.331996
  8048.480  8048.500  0.500  0.412388  131.537377  87.086559  25.293113
  8048.982  8049.000  0.500  0.413368  131.523480  86.992093  25.257337
  8049.483  8049.500  0.500  0.414703  131.492528  86.855588  25.214325
  8049.993  8050.000  0.500  0.416051  131.439150  86.703421  25.163818
  8050.487  8050.500  0.500  0.417814  131.423797  86.540595  25.109212
  8050.992  8051.000  0.500  0.419677  131.383869  86.353277  25.042047
  8051.488  8051.500  0.500  0.421770  131.387429  86.175032  24.978833
  8051.993  8052.000  0.500  0.423824  131.399364  86.006045  24.913828
  8052.487  8052.500  0.500  0.425690  131.359296  85.819477  24.839346
  8052.986  8053.000  0.500  0.427484  131.326473  85.644284  24.766249
  8053.485  8053.500  0.500  0.429241  131.289855  85.470078  24.686223
  8053.985  8054.000  0.500  0.431575  131.472139  85.389227  24.626985
  8054.485  8054.500  0.500  0.434017  131.729562  85.347755  24.571840
  8054.990  8055.000  0.500  0.436937  131.684840  85.070010  24.451405
  8055.492  8055.500  0.500  0.440089  131.573550  84.730602  24.312288
  8055.995  8056.000  0.500  0.443483  131.523475  84.411354  24.178015
  8056.489  8056.500  0.500  0.446936  131.380305  84.028839  24.032490
  8056.992  8057.000  0.500  0.449739  131.112011  83.622563  23.881771
  8057.489  8057.500  0.500  0.451651  130.396529  83.007379  23.674186
  8057.992  8058.000  0.500  0.452606  127.666999  81.192221  23.126274
  8058.492  8058.500  0.500  0.452637  125.926570  80.082855  22.779058
  8058.989  8059.000  0.500  0.451591  127.795798  81.356654  23.103811
  8059.489  8059.500  0.500  0.449906  130.970648  83.518388  23.680470
  8059.992  8060.000  0.500  0.447731  131.857839  84.267244  23.854105
  8060.487  8060.500  0.500  0.444991  131.879847  84.512575  23.883819
  8060.996  8061.000  0.500  0.442124  131.839989  84.729582  23.899212
  8061.499  8061.500  0.500  0.439079  131.847241  84.992669  23.924181
  8061.997  8062.000  0.500  0.436001  131.806986  85.228687  23.933500
  8062.495  8062.500  0.500  0.433080  131.790503  85.467256  23.939766
  8062.993  8063.000  0.500  0.430785  131.739636  85.630564  23.918114
  8063.493  8063.500  0.500  0.428766  131.725484  85.794436  23.893083
  8063.989  8064.000  0.500  0.427223  131.700173  85.910438  23.855533
  8064.495  8064.500  0.500  0.425847  131.680178  86.015676  23.806674
  8064.990  8065.000  0.500  0.424866  131.613978  86.056739  23.740539
  8065.494  8065.500  0.500  0.424062  131.571984  86.098546  23.676745
  8065.998  8066.000  0.500  0.423659  131.556076  86.122770  23.612384
  8066.499  8066.500  0.500  0.423331  131.499844  86.114214  23.547183
  8067.003  8067.000  0.500  0.423274  131.469140  86.099001  23.485974
  8067.496  8067.500  0.500  0.423497  131.412641  86.042851  23.423940
  8068.000  8068.000  0.500  0.423649  131.346707  85.986636  23.369219
  8068.501  8068.500  0.500  0.424155  131.205077  85.850445  23.304093
  8069.003  8069.000  0.500  0.424654  130.797989  85.541331  23.201285
  8069.496  8069.500  0.500  0.425085  128.991677  84.323679  22.855976
  8069.995  8070.000  0.500  0.425360  126.001883  82.346599  22.315360
  8070.496  8070.500  0.500  0.425471  127.025988  83.006612  22.492135
  8071.001  8071.000  0.500  0.425698  130.071544  84.977483  23.027524
  8071.500  8071.500  0.500  0.425746  131.320055  85.789037  23.252788
  8072.007  8072.000  0.500  0.425663  131.440625  85.874936  23.285139
  8072.503  8072.500  0.500  0.425530  131.429733  85.879232  23.297949
  8073.005  8073.000  0.500  0.425199  131.428604  85.906967  23.313813
  8073.507  8073.500  0.500  0.424993  131.413971  85.915076  23.328991
  8074.001  8074.000  0.500  0.424805  131.361506  85.896936  23.337597
  8074.500  8074.500  0.500  0.424493  131.338548  85.908733  23.354396
  8074.994  8075.000  0.500  0.424268  131.319746  85.915722  23.366847
  8075.494  8075.500  0.500  0.424043  131.250320  85.889682  23.374103
  8075.999  8076.000  0.500  0.423748  131.215415  85.892123  23.386756
  8076.498  8076.500  0.500  0.423280  131.189916  85.915675  23.406393
  8077.004  8077.000  0.500  0.422943  131.098402  85.884668  23.413796
  8077.998  8077.990  0.500  0.422220  130.718736  85.697840  23.390527
  8079.006  8078.990  0.500  0.421595  126.611751  83.057246  22.701396
  8080.017  8080.010  0.500  0.421319  128.784590  84.505944  23.133961
  8081.059  8081.060  0.500  0.421258  131.140355  86.057018  23.600632
  8082.124  8082.120  0.500  0.421477  131.198479  86.076278  23.653600
  8083.209  8083.200  0.500  0.421671  131.168851  86.040202  23.699380
  8084.302  8084.300  0.500  0.422011  131.111205  85.973134  23.734787
  8085.429  8085.420  0.500  0.422576  131.044321  85.880772  23.770424
  8086.574  8086.560  0.500  0.423034  130.940003  85.773073  23.797898
  8087.724  8087.710  0.500  0.423689  130.916055  85.701283  23.831912
  8088.897  8088.890  0.500  0.424112  130.747605  85.554750  23.835907
  8090.087  8090.080  0.500  0.424223  130.290600  85.246253  23.788898
  8091.314  8091.300  0.500  0.423970  125.335966  82.025312  22.926301
  8092.536  8092.530  0.500  0.423301  130.189885  85.258959  23.857414
  8093.786  8093.780  0.500  0.422000  131.059658  85.940276  24.078695
  8095.057  8095.050  0.500  0.420660  131.012946  86.024819  24.124450
  8096.350  8096.340  0.500  0.419178  130.914332  86.087543  24.157626
  8097.655  8097.650  0.500  0.418159  130.936012  86.189632  24.198017
  8098.988  8098.980  0.500  0.417376  130.828436  86.186298  24.199354
  8100.347  8100.330  0.500  0.417259  130.812135  86.185642  24.200688
  8101.715  8101.700  0.500  0.417654  130.776961  86.128398  24.173934
  8103.089  8103.080  0.500  0.418042  130.717059  86.055533  24.144393
  8104.502  8104.490  0.500  0.418057  130.672334  86.024852  24.126800
  8105.931  8105.910  0.500  0.417904  130.626706  86.007974  24.109395
  8107.354  8107.350  0.500  0.417043  130.561321  86.038948  24.103849
  8108.820  8108.810  0.500  0.415658  130.554438  86.153630  24.124501
  8110.304  8110.290  0.500  0.414105  130.524926  86.268005  24.142239
  8111.799  8111.790  0.500  0.412766  130.479679  86.353669  24.158056
  8113.317  8113.310  0.500  0.411017  130.413709  86.461103  24.178912
  8114.864  8114.850  0.500  0.409559  130.420174  86.591534  24.205434
  8116.423  8116.410  0.500  0.408269  130.344611  86.653083  24.220025
  8117.986  8117.980  0.500  0.407237  130.343787  86.742059  24.243128
  8119.600  8119.580  0.500  0.406338  130.293102  86.786258  24.260262
  8121.197  8121.190  0.500  0.406133  130.248345  86.774291  24.267171
  8122.841  8122.830  0.500  0.405653  130.223083  86.799036  24.289439
  8124.488  8124.480  0.500  0.405337  130.162986  86.786416  24.307318
  8126.161  8126.150  0.500  0.405355  130.099988  86.742865  24.319526
  8127.846  8127.840  0.500  0.405403  130.062745  86.713917  24.343140
  8129.569  8129.550  0.500  0.405488  130.012910  86.673299  24.368183
  8131.286  8131.280  0.500  0.405855  129.992842  86.628143  24.390883
  8133.042  8133.030  0.500  0.406073  129.924645  86.563758  24.410203
  8134.806  8134.790  0.500  0.406031  129.894428  86.547270  24.440690
  8136.594  8136.580  0.500  0.405504  129.840766  86.557173  24.474291
  8138.397  8138.380  0.500  0.404660  129.780332  86.589864  24.510407
  8140.218  8140.210  0.500  0.403874  129.727955  86.622994  24.546881
  8142.062  8142.050  0.500  0.403128  129.680544  86.655945  24.579568
  8143.925  8143.910  0.500  0.402214  129.621041  86.695414  24.610434
  8145.794  8145.790  0.500  0.401314  129.587050  86.750704  24.645340
  8147.706  8147.690  0.500  0.400244  129.559739  86.825263  24.683158
  8149.622  8149.610  0.500  0.398983  129.453991  86.863937  24.708349
  8151.562  8151.550  0.500  0.397885  129.374792  86.906120  24.742110
  8153.523  8153.510  0.500  0.397181  129.362932  86.959318  24.776577
  8155.484  8155.480  0.500  0.396583  129.320540  86.982848  24.807196
  8157.501  8157.480  0.500  0.395969  129.262316  86.997081  24.835383
  8159.496  8159.490  0.500  0.395116  129.219244  87.042291  24.869445
  8161.535  8161.520  0.500  0.394091  129.177290  87.103346  24.914838
  8163.581  8163.580  0.500  0.392888  129.124064  87.172176  24.957812
  8165.667  8165.650  0.500  0.391520  129.087625  87.266911  25.009090
  8167.749  8167.740  0.500  0.390298  129.042940  87.343400  25.053389
  8169.861  8169.850  0.500  0.389473  128.970865  87.366645  25.079151
  8171.991  8171.980  0.500  0.388660  128.941288  87.417620  25.113302
  8174.130  8174.120  0.500  0.387804  128.855340  87.434198  25.135622
  8176.309  8176.290  0.500  0.386841  128.814989  87.490998  25.168953
  8178.493  8178.480  0.500  0.386033  128.745482  87.514485  25.192050
  8180.697  8180.680  0.500  0.385552  128.692525  87.520602  25.209781
  8182.907  8182.900  0.500  0.385323  128.601700  87.478828  25.207510
  8185.170  8185.150  0.500  0.384987  128.572486  87.488398  25.220073
  8187.423  8187.410  0.500  0.384594  128.480903  87.460378  25.226603
  8189.706  8189.690  0.500  0.384142  128.472463  87.494180  25.252784
  8191.994  8191.990  0.500  0.383665  128.416979  87.498116  25.274464
  8194.322  8194.310  0.500  0.383208  128.331700  87.480003  25.294279
  8196.658  8196.650  0.500  0.382371  128.278719  87.517089  25.330282
  8199.022  8199.000  0.500  0.381347  128.222840  87.568603  25.372179
  8201.389  8201.380  0.500  0.380208  128.136894  87.609683  25.412605
  8203.787  8203.770  0.500  0.378881  128.137015  87.726040  25.476300
  8206.203  8206.190  0.500  0.377714  128.069625  87.782340  25.524444
  8208.636  8208.620  0.500  0.376494  127.983045  87.830096  25.566425
  8211.087  8211.070  0.500  0.375550  127.927335  87.874722  25.610781
  8213.563  8213.550  0.500  0.374516  127.866925  87.924116  25.659942
  8216.052  8216.040  0.500  0.373500  127.794047  87.963367  25.699872
  8218.562  8218.550  0.500  0.372537  127.708074  87.988802  25.731686
  8221.095  8221.070  0.500  0.371546  127.650760  88.036556  25.771037
  8223.632  8223.620  0.500  0.370386  127.614955  88.113972  25.813998
  8226.211  8226.190  0.500  0.369640  127.528510  88.119993  25.838224
  8228.784  8228.770  0.500  0.368451  127.475072  88.187932  25.876299
  8231.395  8231.380  0.500  0.367450  127.413616  88.233630  25.912895
  8234.023  8234.000  0.500  0.366707  127.331768  88.242512  25.936810
  8236.664  8236.650  0.500  0.365787  127.291549  88.295853  25.976185
  8239.331  8239.310  0.500  0.365110  127.212033  88.300419  26.004858
  8242.004  8241.990  0.500  0.364598  127.132678  88.290548  26.026916
  8244.712  8244.690  0.500  0.364095  127.043504  88.273011  26.050207
  8247.427  8247.410  0.500  0.363172  126.937353  88.280758  26.082330
  8250.165  8250.150  0.500  0.361980  126.862494  88.333858  26.125627
  8252.916  8252.900  0.500  0.360816  126.790778  88.386742  26.172783
  8255.696  8255.680  0.500  0.359911  126.735001  88.427839  26.214451
  8258.486  8258.470  0.500  0.358837  126.683157  88.486717  26.264234
  8261.313  8261.290  0.500  0.357940  126.622775  88.523893  26.304423
  8264.130  8264.120  0.500  0.356882  126.545372  88.563416  26.346213
  8267.002  8266.970  0.500  0.355536  126.411319  88.588728  26.384696
  8269.850  8269.850  0.500  0.354483  126.358732  88.645244  26.425099
  8272.749  8272.740  0.500  0.353173  126.322582  88.736022  26.478391
  8275.666  8275.650  0.500  0.352032  126.242360  88.780927  26.515479
  8278.573  8278.570  0.500  0.350946  124.697361  87.789642  26.245059
  8281.534  8281.520  0.500  0.349836  125.987803  88.796624  26.571777
  8284.507  8284.490  0.500  0.348772  125.938370  88.856277  26.615606
  8287.479  8287.470  0.500  0.347901  125.867720  88.883817  26.652707
  8290.492  8290.480  0.500  0.346971  125.775491  88.901368  26.690778
  8293.512  8293.500  0.500  0.345923  125.686029  88.931257  26.729561
  8296.559  8296.550  0.500  0.345041  125.621847  88.964324  26.773059
  8299.625  8299.610  0.500  0.344026  125.516551  88.980009  26.811292
  8302.703  8302.690  0.500  0.343020  125.429436  89.007776  26.852498
  8305.795  8305.790  0.500  0.341817  125.330888  89.044830  26.897101
  8308.928  8308.910  0.500  0.340838  125.247279  89.072637  26.937670
  8312.069  8312.050  0.500  0.339925  125.151755  89.086018  26.977280
  8315.210  8315.200  0.500  0.338806  125.051363  89.114174  27.020064
  8318.391  8318.380  0.500  0.337610  124.964871  89.159112  27.063812
  8321.587  8321.570  0.500  0.336419  124.880341  89.204956  27.111368
  8324.798  8324.790  0.500  0.335240  124.782167  89.240027  27.156815
  8328.032  8328.020  0.500  0.333993  124.690841  89.286018  27.201345
  8331.280  8331.270  0.500  0.333039  124.613816  89.316019  27.244457
  8334.549  8334.550  0.500  0.331784  124.391091  89.268350  27.259139
  8337.844  8337.840  0.500  0.330746  124.240022  89.252515  27.288265
  8341.157  8341.150  0.500  0.329528  124.084762  89.249629  27.319043
  8344.472  8344.470  0.500  0.328227  123.961409  89.276918  27.356642
  8347.830  8347.820  0.500  0.326931  123.808904  89.282768  27.391019
  8351.207  8351.190  0.500  0.325869  123.542973  89.185638  27.398495
  8354.585  8354.570  0.500  0.324708  123.356686  89.154625  27.422138
  8357.993  8357.980  0.500  0.323737  123.219820  89.142174  27.448139
  8361.412  8361.400  0.500  0.322642  123.145492  89.186028  27.494771
  8364.864  8364.850  0.500  0.321528  123.242501  89.355800  27.584803
  8368.307  8368.310  0.500  0.320461  123.676707  89.766321  27.755539
  8371.801  8371.790  0.500  0.319128  123.591462  89.824117  27.808443
  8375.299  8375.290  0.500  0.317925  123.484765  89.854570  27.852560
  8378.820  8378.810  0.500  0.316746  123.366778  89.874610  27.896385
  8382.362  8382.350  0.500  0.315443  123.254977  89.910230  27.939776
  8385.911  8385.900  0.500  0.314264  123.134453  89.928327  27.974552
  8389.495  8389.480  0.500  0.312997  122.977757  89.927783  28.012826
  8393.089  8393.080  0.500  0.312015  122.860535  89.930305  28.047389
  8396.702  8396.690  0.500  0.311074  122.724899  89.915579  28.077133
  8400.338  8400.320  0.500  0.309756  122.649041  89.978529  28.131667
  8403.990  8403.980  0.500  0.308512  122.539054  90.009703  28.177243
  8407.667  8407.650  0.500  0.307184  122.438579  90.055402  28.227082
  8411.353  8411.340  0.500  0.305825  122.324689  90.094069  28.275612
  8415.066  8415.050  0.500  0.304716  122.196153  90.099264  28.317368
  8418.786  8418.780  0.500  0.303340  122.113970  90.162650  28.373585
  8422.531  8422.520  0.500  0.301984  121.995041  90.197003  28.423895
  8426.312  8426.290  0.500  0.300624  121.884182  90.237656  28.476516
  8430.097  8430.080  0.500  0.299427  121.783157  90.270913  28.528331
  8433.886  8433.880  0.500  0.298246  121.594678  90.237725  28.558121
  8437.733  8437.710  0.500  0.296901  121.546783  90.323506  28.625634
  8441.568  8441.550  0.500  0.295592  121.424181  90.350666  28.676149
  8445.426  8445.410  0.500  0.294436  121.328628  90.383970  28.726856
  8449.302  8449.290  0.500  0.293469  121.175900  90.357535  28.759766
  8453.210  8453.190  0.500  0.292103  121.067674  90.400219  28.809811
  8457.133  8457.110  0.500  0.290806  120.961168  90.437868  28.865533
  8461.073  8461.050  0.500  0.289304  120.803664  90.455912  28.908487
  8465.025  8465.010  0.500  0.288172  120.729616  90.502843  28.963878
  8468.991  8468.980  0.500  0.286941  120.516842  90.454604  28.988232
  8473.000  8472.980  0.500  0.285735  120.431865  90.499932  29.045523
  8477.020  8476.990  0.500  0.284371  120.285938  90.513610  29.088868
  8481.053  8481.030  0.500  0.282922  120.156166  90.547072  29.139243
  8485.092  8485.080  0.500  0.281681  120.010593  90.549752  29.180972
  8489.167  8489.150  0.500  0.280349  119.891106  90.580090  29.230450
  8493.261  8493.240  0.500  0.279050  119.743023  90.585855  29.272209
  8497.375  8497.350  0.500  0.277709  119.583838  90.586795  29.315032
  8501.518  8501.480  0.500  0.276466  119.479132  90.620047  29.369588
  8505.646  8505.630  0.500  0.275054  119.324879  90.630928  29.412787
  8509.797  8509.790  0.500  0.273610  119.148291  90.627601  29.456926
  8514.002  8513.980  0.500  0.272365  118.937843  90.580231  29.481094
  8518.192  8518.180  0.500  0.270976  118.882214  90.663687  29.555275
  8522.449  8522.410  0.500  0.269565  118.607271  90.581794  29.570804
  8526.670  8526.650  0.500  0.268307  118.012401  90.240892  29.499497
  8530.927  8530.910  0.500  0.267090  102.746578  78.663236  25.755761
  8535.219  8535.190  0.500  0.265712  118.608336  90.932257  29.813941
  8539.506  8539.490  0.500  0.264253  118.493233  90.976613  29.875099
  8543.829  8543.810  0.500  0.262955  118.277880  90.929254  29.902538
  8548.169  8548.150  0.500  0.261561  118.143409  90.952600  29.955338
  8552.529  8552.510  0.500  0.260257  117.976893  90.942920  29.991722
  8556.900  8556.890  0.500  0.258903  117.811672  90.938545  30.035495
  8561.301  8561.280  0.500  0.257619  117.659405  90.937764  30.078240
  8565.719  8565.700  0.500  0.256193  117.522453  90.961524  30.128415
  8570.155  8570.130  0.500  0.254789  117.371865  90.972589  30.181089
  8574.595  8574.580  0.500  0.253346  117.220403  90.986404  30.226858
  8579.075  8579.050  0.500  0.251968  116.994491  90.936285  30.256681
  8583.559  8583.540  0.500  0.250555  116.864165  90.963386  30.313043
  8588.067  8588.050  0.500  0.249144  116.685291  90.952406  30.355844
  8592.596  8592.580  0.500  0.247648  105.281825  82.186669  27.473382
  8597.149  8597.130  0.500  0.246382  115.613415  90.366161  30.256680
