# XDI/1.0 BlueSky/1.10.0 BMM/2023-1.0-py310-tiled
# Beamline.name: BMM (06BM) -- Beamline for Materials Measurement (NIST)
# Beamline.xray_source: NSLS-II three-pole wiggler
# Beamline.collimation: paraboloid mirror, 5 nm Rh on 30 nm Pt
# Beamline.focusing: not in use
# Beamline.harmonic_rejection: flat mirror, Pt stripe, pitch = 7.0 mrad relative to beam
# Beamline.software: Bluesky 1.10.0, Ophyd 1.7.0, DataBroker 2.0.0b13, Python 3.10.8, 2023-1.0-py310-tiled
# Detector.I0: 10 cm N2
# Detector.I1: 25 cm N2
# Detector.I2: 25 cm N2
# Element.symbol: Eu
# Element.edge: L1
# Element.reference: Eu
# Element.reference_material: Eu2O3
# Facility.name: NSLS-II
# Facility.energy: 3.0
# Facility.current: 400.4
# Facility.mode: top-off
# Facility.GUP: 123456
# Facility.SAF: 301027
# Facility.cycle: 2023-2
# Mono.name: Si(111)
# Mono.d_spacing: 3.1351860
# Mono.encoder_resolution: 0.0000050 deg/ct
# Mono.angle_offset: 16.0754326 deg
# Mono.scan_mode: pseudo channel cut
# Mono.scan_type: step
# Mono.direction: forward in energy
# Sample.name: Eu2TiO5
# Sample.prep: Powder in PEG pellet
# Sample.x: 149.848 mm
# Sample.y: 114.690 mm
# Sample.SDD_position: 205.000 mm
# Scan.experimenters: Bruce Ravel
# Scan.edge_energy: 8052.0
# Scan.start_time: 2023-05-08T21:29:21
# Scan.end_time: 2023-05-08T21:35:01
# Scan.transient_id: 75630
# Scan.uid: c1c7b99c-46d2-41bf-b604-c7d463b6f27a
# Scan.plot_hint: ln(I0/It)  --  ln($5/$6)
# Column.1: energy eV
# Column.2: requested_energy eV
# Column.3: measurement_time seconds
# Column.4: xmu 
# Column.5: I0 nA
# Column.6: It nA
# Column.7: Ir nA
# ///////////
# sample courtesy Martin Stennett, University of Sheffield
# -----------
# energy  requested_energy  measurement_time  xmu  I0  It  Ir
  7852.008  7852.000  0.500  0.841773  136.213888  58.700792  15.831822
  7862.007  7862.000  0.500  0.837021  136.057006  58.912477  15.937611
  7872.077  7872.000  0.500  0.831951  135.868906  59.130084  16.057128
  7882.055  7882.000  0.500  0.827124  135.699927  59.342299  16.188455
  7892.090  7892.000  0.500  0.822479  135.553896  59.554399  16.322874
  7902.080  7902.000  0.500  0.817923  135.302410  59.715388  16.440374
  7912.016  7912.000  0.500  0.813659  135.131824  59.894953  16.555295
  7922.042  7922.000  0.500  0.808904  134.935703  60.093057  16.673071
  7932.033  7932.000  0.500  0.804221  134.615791  60.231984  16.780658
  7942.025  7942.000  0.500  0.799416  134.607448  60.518346  16.937838
  7952.028  7952.000  0.500  0.794903  134.057716  60.543842  17.012748
  7962.021  7962.000  0.500  0.790474  134.031467  60.800640  17.152246
  7972.012  7972.000  0.500  0.786034  133.896994  61.009954  17.272136
  7982.014  7982.000  0.500  0.781471  133.613595  61.159257  17.378987
  7992.011  7992.000  0.500  0.776875  133.433418  61.358123  17.501401
  8002.007  8002.000  0.500  0.772434  133.230089  61.537317  17.620229
  8012.012  8012.000  0.500  0.768181  132.998709  61.692251  17.735964
  8021.994  8022.000  0.500  0.763934  132.856527  61.888578  17.863198
  8024.003  8024.000  0.500  0.763326  132.694968  61.850921  17.860178
  8026.001  8026.000  0.500  0.762406  132.674098  61.898119  17.887019
  8027.999  8028.000  0.500  0.761385  132.611933  61.932332  17.910859
  8029.998  8030.000  0.500  0.760421  132.566126  61.970611  17.933103
  8032.001  8032.000  0.500  0.759637  132.515141  61.995367  17.953027
  8034.008  8034.000  0.500  0.758863  132.453533  62.014551  17.967842
  8036.496  8036.000  0.500  0.757963  132.371452  62.031911  17.986138
  8038.024  8038.000  0.500  0.757229  132.295200  62.041733  17.993887
  8040.026  8040.000  0.500  0.756417  132.284109  62.086901  18.018376
  8042.017  8042.000  0.500  0.755601  132.277492  62.134483  18.041019
  8042.485  8042.500  0.500  0.755313  132.240486  62.134950  18.039717
  8042.994  8043.000  0.500  0.755237  132.230330  62.134946  18.040987
  8043.484  8043.500  0.500  0.754977  132.187969  62.131176  18.041412
  8043.985  8044.000  0.500  0.754815  132.181983  62.138449  18.043606
  8044.489  8044.500  0.500  0.754677  132.189045  62.150307  18.047818
  8044.990  8045.000  0.500  0.754505  132.176217  62.155011  18.050845
  8045.488  8045.500  0.500  0.754285  132.122157  62.143225  18.045510
  8045.992  8046.000  0.500  0.754022  132.103381  62.150739  18.050221
  8046.488  8046.500  0.500  0.753798  132.112034  62.168760  18.055471
  8046.992  8047.000  0.500  0.753652  132.089848  62.167361  18.054258
  8047.488  8047.500  0.500  0.753533  132.069253  62.165062  18.051769
  8047.987  8048.000  0.500  0.753503  132.068264  62.166484  18.048375
  8048.486  8048.500  0.500  0.753428  132.053522  62.164214  18.047538
  8048.984  8049.000  0.500  0.753078  132.028297  62.174058  18.044218
  8049.486  8049.500  0.500  0.753042  132.031421  62.177766  18.043770
  8049.988  8050.000  0.500  0.752986  131.968952  62.151875  18.031951
  8050.487  8050.500  0.500  0.752768  132.031326  62.194803  18.034479
  8050.989  8051.000  0.500  0.752669  131.994375  62.183553  18.025653
  8051.494  8051.500  0.500  0.752571  131.945187  62.166457  18.011375
  8051.993  8052.000  0.500  0.752674  131.925320  62.150712  17.994633
  8052.489  8052.500  0.500  0.752653  131.908622  62.144157  17.979347
  8052.989  8053.000  0.500  0.752530  131.872536  62.134755  17.958940
  8053.485  8053.500  0.500  0.752483  131.847391  62.125862  17.935126
  8053.988  8054.000  0.500  0.752470  131.810177  62.109143  17.904916
  8054.485  8054.500  0.500  0.752565  131.758426  62.078853  17.865022
  8054.976  8055.000  0.500  0.752703  131.719883  62.052124  17.827187
  8055.492  8055.500  0.500  0.752859  131.666697  62.017378  17.787371
  8055.992  8056.000  0.500  0.753134  131.576342  61.957809  17.741390
  8056.495  8056.500  0.500  0.753135  131.426818  61.887313  17.692451
  8056.994  8057.000  0.500  0.753445  131.152585  61.739032  17.622571
  8057.494  8057.500  0.500  0.753356  130.423962  61.401512  17.502730
  8057.994  8058.000  0.500  0.753179  127.754904  60.155624  17.126315
  8058.489  8058.500  0.500  0.753462  126.004703  59.314723  16.864129
  8058.995  8059.000  0.500  0.753857  127.826939  60.148730  17.074581
  8059.487  8059.500  0.500  0.753821  130.951503  61.621227  17.465112
  8059.995  8060.000  0.500  0.753722  131.890614  62.069258  17.563273
  8060.496  8060.500  0.500  0.754082  131.944799  62.072396  17.533157
  8060.996  8061.000  0.500  0.754422  131.890935  62.025955  17.488348
  8061.496  8061.500  0.500  0.754519  131.873890  62.011925  17.447900
  8062.000  8062.000  0.500  0.754835  131.839201  61.976060  17.396510
  8062.503  8062.500  0.500  0.754995  131.804899  61.950018  17.344246
  8063.001  8063.000  0.500  0.755147  131.771307  61.924803  17.288551
  8063.496  8063.500  0.500  0.755393  132.244994  62.132109  17.297247
  8064.000  8064.000  0.500  0.755608  132.193699  62.094675  17.235068
  8064.498  8064.500  0.500  0.755795  132.187794  62.080278  17.174371
  8064.999  8065.000  0.500  0.756446  132.172866  62.032856  17.106538
  8065.491  8065.500  0.500  0.756891  132.122525  61.981642  17.036463
  8065.998  8066.000  0.500  0.757231  132.051274  61.927167  16.971122
  8066.496  8066.500  0.500  0.757518  132.044190  61.906104  16.919688
  8067.006  8067.000  0.500  0.757795  132.007968  61.871963  16.869097
  8067.501  8067.500  0.500  0.758028  131.884697  61.799792  16.817618
  8068.011  8068.000  0.500  0.758168  131.883905  61.790779  16.787293
  8068.501  8068.500  0.500  0.758078  131.715147  61.717266  16.744826
  8069.006  8069.000  0.500  0.758029  131.343092  61.545956  16.684717
  8069.501  8069.500  0.500  0.757638  129.571340  60.739446  16.456564
  8069.997  8070.000  0.500  0.757519  126.516574  59.314527  16.067082
  8070.494  8070.500  0.500  0.757529  127.483250  59.767138  16.185956
  8070.998  8071.000  0.500  0.757373  130.592695  61.234454  16.583447
  8071.497  8071.500  0.500  0.756995  131.866362  61.855071  16.757553
  8072.002  8072.000  0.500  0.756658  131.948866  61.914613  16.779734
  8072.503  8072.500  0.500  0.756544  131.950788  61.922562  16.789173
  8073.003  8073.000  0.500  0.756385  131.926281  61.920950  16.795609
  8073.502  8073.500  0.500  0.756196  131.943499  61.940695  16.809307
  8074.001  8074.000  0.500  0.755881  131.919526  61.948961  16.820611
  8074.495  8074.500  0.500  0.755651  131.874617  61.942123  16.828596
  8074.997  8075.000  0.500  0.755546  131.836962  61.930956  16.834988
  8075.491  8075.500  0.500  0.755522  131.809857  61.919730  16.841564
  8075.999  8076.000  0.500  0.755238  131.762591  61.915096  16.848078
  8076.490  8076.500  0.500  0.754970  131.710227  61.907057  16.856700
  8076.995  8077.000  0.500  0.754741  131.604971  61.871783  16.858432
  8077.992  8077.990  0.500  0.754128  131.273391  61.753682  16.846283
  8078.995  8078.990  0.500  0.753417  127.176806  59.869147  16.354637
  8080.017  8080.010  0.500  0.753146  129.244323  60.858951  16.651309
  8081.056  8081.060  0.500  0.752296  131.654960  62.046783  17.005456
  8082.127  8082.120  0.500  0.751323  131.676523  62.117353  17.060502
  8083.206  8083.200  0.500  0.750358  131.661440  62.170199  17.114573
  8084.311  8084.300  0.500  0.749253  131.597039  62.208499  17.167281
  8085.424  8085.420  0.500  0.748281  131.532272  62.238311  17.218996
  8086.563  8086.560  0.500  0.747379  131.500739  62.279591  17.270155
  8087.719  8087.710  0.500  0.746496  131.374986  62.274984  17.305329
  8088.897  8088.890  0.500  0.745681  131.245458  62.264310  17.338281
  8090.093  8090.080  0.500  0.744901  130.776440  62.090225  17.319001
  8091.300  8091.300  0.500  0.744210  125.857067  59.795887  16.702699
  8092.533  8092.530  0.500  0.743780  130.642646  62.096235  17.365150
  8093.784  8093.780  0.500  0.743228  131.589838  62.581030  17.522681
  8095.057  8095.050  0.500  0.742742  131.538233  62.586877  17.542199
  8096.341  8096.340  0.500  0.742299  131.459760  62.577279  17.550712
  8097.657  8097.650  0.500  0.741906  131.378045  62.562931  17.555280
  8098.991  8098.980  0.500  0.741567  131.355892  62.573619  17.559992
  8100.330  8100.330  0.500  0.741231  131.330439  62.582501  17.562599
  8101.715  8101.700  0.500  0.740802  131.299270  62.594490  17.560373
  8103.089  8103.080  0.500  0.740221  131.220662  62.593384  17.552081
  8104.497  8104.490  0.500  0.740081  131.159865  62.573134  17.538661
  8105.920  8105.910  0.500  0.739344  131.101196  62.591257  17.535501
  8107.365  8107.350  0.500  0.738955  131.108080  62.618865  17.533317
  8108.820  8108.810  0.500  0.738613  131.086036  62.629751  17.529011
  8110.304  8110.290  0.500  0.738015  131.012258  62.631996  17.519616
  8111.804  8111.790  0.500  0.737413  130.974464  62.651606  17.518539
  8113.320  8113.310  0.500  0.736968  130.955757  62.670558  17.515899
  8114.861  8114.850  0.500  0.736736  130.910296  62.663327  17.510971
  8116.426  8116.410  0.500  0.736232  130.861358  62.671470  17.508034
  8117.989  8117.980  0.500  0.735577  130.801243  62.683749  17.508201
  8119.586  8119.580  0.500  0.735043  130.771955  62.703148  17.518895
  8121.206  8121.190  0.500  0.734390  130.751594  62.734381  17.534835
  8122.844  8122.830  0.500  0.733637  130.651473  62.733532  17.546901
  8124.485  8124.480  0.500  0.732803  130.625158  62.773246  17.570765
  8126.167  8126.150  0.500  0.731986  130.591022  62.808116  17.599994
  8127.846  8127.840  0.500  0.731116  130.557288  62.846546  17.632684
  8129.560  8129.550  0.500  0.730436  130.470655  62.847578  17.657935
  8131.292  8131.280  0.500  0.729810  130.466482  62.884906  17.695257
  8133.039  8133.030  0.500  0.728935  130.432962  62.923769  17.734516
  8134.798  8134.790  0.500  0.727991  130.387080  62.961081  17.771051
  8136.597  8136.580  0.500  0.727043  130.307205  62.982161  17.798617
  8138.386  8138.380  0.500  0.726197  130.295587  63.029886  17.833496
  8140.227  8140.210  0.500  0.725325  130.226746  63.051487  17.857502
  8142.062  8142.050  0.500  0.724290  130.158192  63.083587  17.881291
  8143.916  8143.910  0.500  0.723276  130.084899  63.112015  17.906079
  8145.813  8145.790  0.500  0.722519  130.061864  63.148628  17.929311
  8147.692  8147.690  0.500  0.721768  130.023082  63.177234  17.950501
  8149.622  8149.610  0.500  0.721076  129.950808  63.185853  17.965235
  8151.559  8151.550  0.500  0.720477  129.884899  63.191609  17.978007
  8153.526  8153.510  0.500  0.719596  129.865556  63.237915  18.006598
  8155.490  8155.480  0.500  0.718810  129.791210  63.251392  18.029555
  8157.493  8157.480  0.500  0.717868  129.766238  63.298849  18.058612
  8159.508  8159.490  0.500  0.717322  129.699347  63.300745  18.076303
  8161.532  8161.520  0.500  0.716386  129.653653  63.337671  18.105278
  8163.598  8163.580  0.500  0.715350  129.592535  63.373450  18.133694
  8165.664  8165.650  0.500  0.714435  129.525478  63.398656  18.160710
  8167.752  8167.740  0.500  0.713676  129.507076  63.437783  18.183768
  8169.864  8169.850  0.500  0.712824  129.453350  63.465532  18.208314
  8171.988  8171.980  0.500  0.712096  129.399316  63.485226  18.225847
  8174.133  8174.120  0.500  0.711261  129.336991  63.507641  18.246490
  8176.300  8176.290  0.500  0.710468  129.280628  63.530361  18.266064
  8178.502  8178.480  0.500  0.709667  129.260001  63.571101  18.288214
  8180.688  8180.680  0.500  0.709109  129.193308  63.573753  18.299707
  8182.922  8182.900  0.500  0.708157  129.129666  63.602934  18.314633
  8185.162  8185.150  0.500  0.707355  129.093219  63.636036  18.334725
  8187.429  8187.410  0.500  0.706435  129.051273  63.673897  18.354011
  8189.698  8189.690  0.500  0.705611  129.010504  63.706275  18.375162
  8192.008  8191.990  0.500  0.704600  128.940296  63.735984  18.401274
  8194.331  8194.310  0.500  0.703641  128.886491  63.770545  18.427155
  8196.661  8196.650  0.500  0.702597  128.790957  63.789843  18.452272
  8199.016  8199.000  0.500  0.701511  128.728902  63.828333  18.483953
  8201.389  8201.380  0.500  0.700504  128.659269  63.858092  18.510264
  8203.781  8203.770  0.500  0.699561  128.616668  63.897165  18.544347
  8206.203  8206.190  0.500  0.698521  128.595523  63.953174  18.584538
  8208.636  8208.620  0.500  0.697403  128.510252  63.982271  18.613330
  8211.087  8211.070  0.500  0.696273  128.436210  64.017691  18.648037
  8213.574  8213.550  0.500  0.695593  128.330773  64.008618  18.669020
  8216.054  8216.040  0.500  0.694619  128.315485  64.063384  18.707459
  8218.562  8218.550  0.500  0.693472  128.246846  64.102583  18.737282
  8221.086  8221.070  0.500  0.692376  128.215002  64.156957  18.768598
  8223.623  8223.620  0.500  0.691279  128.130885  64.185258  18.793649
  8226.206  8226.190  0.500  0.690139  128.049375  64.217598  18.818192
  8228.778  8228.770  0.500  0.689140  127.995197  64.254555  18.841092
  8231.401  8231.380  0.500  0.688094  127.944047  64.296133  18.871293
  8234.014  8234.000  0.500  0.686981  127.866618  64.328729  18.897893
  8236.667  8236.650  0.500  0.686208  127.822463  64.356240  18.921999
  8239.328  8239.310  0.500  0.685275  127.752772  64.381195  18.949774
  8241.999  8241.990  0.500  0.684134  127.682468  64.419256  18.978776
  8244.712  8244.690  0.500  0.682879  127.614577  64.465867  19.012338
  8247.422  8247.410  0.500  0.681847  127.513381  64.481253  19.038868
  8250.165  8250.150  0.500  0.680932  127.480540  64.523666  19.072355
  8252.913  8252.900  0.500  0.679636  127.371584  64.552110  19.101627
  8255.690  8255.680  0.500  0.678517  127.322031  64.599230  19.140167
  8258.489  8258.470  0.500  0.677449  127.228634  64.620850  19.168970
  8261.310  8261.290  0.500  0.676477  127.174532  64.656181  19.201928
  8264.124  8264.120  0.500  0.675621  127.131701  64.689744  19.233244
  8266.990  8266.970  0.500  0.674525  127.021396  64.704480  19.258109
  8269.862  8269.850  0.500  0.673309  126.971735  64.757856  19.294989
  8272.758  8272.740  0.500  0.672174  126.862379  64.775570  19.317203
  8275.669  8275.650  0.500  0.671110  126.792631  64.808916  19.345068
  8278.587  8278.570  0.500  0.669911  125.243518  64.093868  19.152065
  8281.534  8281.520  0.500  0.668659  126.582989  64.860551  19.398105
  8284.510  8284.490  0.500  0.667352  126.535656  64.921088  19.436821
  8287.479  8287.470  0.500  0.666160  126.467203  64.963341  19.470496
  8290.500  8290.480  0.500  0.664851  126.411468  65.019775  19.507121
  8293.521  8293.500  0.500  0.663685  126.258527  65.016840  19.530953
  8296.565  8296.550  0.500  0.662464  126.196819  65.064465  19.568194
  8299.628  8299.610  0.500  0.661243  126.138789  65.114025  19.607292
  8302.709  8302.690  0.500  0.659941  126.045814  65.150772  19.644029
  8305.807  8305.790  0.500  0.658731  125.956336  65.183384  19.678082
  8308.931  8308.910  0.500  0.657528  125.878724  65.221636  19.713450
  8312.069  8312.050  0.500  0.656372  125.754144  65.232401  19.739911
  8315.219  8315.200  0.500  0.655269  125.707859  65.280414  19.781162
  8318.394  8318.380  0.500  0.654019  125.590971  65.301278  19.809994
  8321.590  8321.570  0.500  0.652864  125.533154  65.346633  19.849563
  8324.810  8324.790  0.500  0.651555  125.382725  65.353830  19.875373
  8328.032  8328.020  0.500  0.650209  125.346158  65.422751  19.920477
  8331.289  8331.270  0.500  0.649021  125.245461  65.447909  19.950878
  8334.564  8334.550  0.500  0.647832  124.994301  65.394394  19.956827
  8337.856  8337.840  0.500  0.646483  124.899985  65.433241  19.991154
  8341.163  8341.150  0.500  0.645221  124.735117  65.429351  20.011288
  8344.484  8344.470  0.500  0.643918  124.544556  65.414613  20.032205
  8347.833  8347.820  0.500  0.642766  124.424546  65.426887  20.062488
  8351.205  8351.190  0.500  0.641384  124.152652  65.374192  20.068408
  8354.579  8354.570  0.500  0.640062  123.955660  65.356839  20.088408
  8357.990  8357.980  0.500  0.638803  123.871581  65.394754  20.124193
  8361.409  8361.400  0.500  0.637446  123.822568  65.457660  20.165509
  8364.870  8364.850  0.500  0.636268  123.746199  65.494433  20.205376
  8368.319  8368.310  0.500  0.634990  123.683959  65.545185  20.252241
  8371.792  8371.790  0.500  0.633654  123.572459  65.573633  20.286588
  8375.305  8375.290  0.500  0.632556  123.458387  65.585073  20.317664
  8378.826  8378.810  0.500  0.631317  123.379869  65.624646  20.355294
  8382.359  8382.350  0.500  0.629994  123.277875  65.657211  20.389748
  8385.905  8385.900  0.500  0.628557  123.106504  65.660181  20.415088
  8389.495  8389.480  0.500  0.627156  122.922786  65.654108  20.436048
  8393.092  8393.080  0.500  0.625836  122.777260  65.663009  20.465718
  8396.696  8396.690  0.500  0.624435  122.682943  65.704581  20.503842
  8400.332  8400.320  0.500  0.623052  122.546332  65.722212  20.534542
  8404.002  8403.980  0.500  0.621514  122.445662  65.769320  20.573038
  8407.664  8407.650  0.500  0.620151  122.315060  65.788750  20.606350
  8411.344  8411.340  0.500  0.618890  122.233899  65.828086  20.649744
  8415.060  8415.050  0.500  0.617478  122.078042  65.837029  20.676474
  8418.798  8418.780  0.500  0.616139  121.957483  65.860144  20.713076
  8422.531  8422.520  0.500  0.614859  121.873739  65.899246  20.752549
  8426.300  8426.290  0.500  0.613389  121.742861  65.925284  20.790529
  8430.100  8430.080  0.500  0.611914  121.617816  65.954799  20.829075
  8433.904  8433.880  0.500  0.610631  121.451520  65.949168  20.856401
  8437.718  8437.710  0.500  0.609239  121.336451  65.978458  20.897993
  8441.565  8441.550  0.500  0.607762  121.223262  66.014325  20.936275
  8445.429  8445.410  0.500  0.606432  121.510989  66.259094  21.044460
  8449.311  8449.290  0.500  0.605279  121.372827  66.260120  21.073330
  8453.200  8453.190  0.500  0.603957  121.215162  66.261556  21.106725
  8457.127  8457.110  0.500  0.602563  121.116493  66.299969  21.145603
  8461.079  8461.050  0.500  0.600826  120.929013  66.312461  21.178364
  8465.031  8465.010  0.500  0.599405  120.800924  66.336422  21.213605
  8468.988  8468.980  0.500  0.597927  120.664514  66.359532  21.250044
  8473.000  8472.980  0.500  0.596477  120.534835  66.384396  21.290168
  8477.011  8476.990  0.500  0.594997  120.388908  66.402201  21.326251
  8481.056  8481.030  0.500  0.593510  120.240216  66.418918  21.359147
  8485.102  8485.080  0.500  0.592155  120.092835  66.427412  21.391172
  8489.164  8489.150  0.500  0.590580  119.925270  66.439280  21.425340
  8493.258  8493.240  0.500  0.589170  119.828002  66.479108  21.466406
  8497.378  8497.350  0.500  0.587853  119.624110  66.453407  21.488982
  8501.505  8501.480  0.500  0.586508  119.453690  66.448053  21.518832
  8505.649  8505.630  0.500  0.584960  119.311984  66.472047  21.556376
  8509.812  8509.790  0.500  0.583242  119.189185  66.517856  21.604893
  8513.999  8513.980  0.500  0.581780  118.999306  66.509013  21.632793
  8518.195  8518.180  0.500  0.580333  118.802227  66.495007  21.659035
  8522.437  8522.410  0.500  0.578924  118.531182  66.436856  21.670975
  8526.680  8526.650  0.500  0.577368  117.955322  66.217053  21.632280
  8530.933  8530.910  0.500  0.575833  102.706784  57.745483  18.893160
  8535.216  8535.190  0.500  0.574420  118.541039  66.742326  21.866899
  8539.503  8539.490  0.500  0.572783  118.399698  66.771965  21.907370
  8543.835  8543.810  0.500  0.571340  118.249968  66.783844  21.943225
  8548.172  8548.150  0.500  0.569937  118.030323  66.753370  21.965744
  8552.532  8552.510  0.500  0.568230  117.787817  66.730018  21.992155
  8556.907  8556.890  0.500  0.566747  117.653094  66.752615  22.028570
  8561.301  8561.280  0.500  0.565495  117.576856  66.792961  22.074659
  8565.722  8565.700  0.500  0.563975  117.403815  66.796109  22.107425
  8570.148  8570.130  0.500  0.562352  117.246215  66.814734  22.146081
  8574.598  8574.580  0.500  0.560710  117.107714  66.845483  22.189505
  8579.078  8579.050  0.500  0.559306  116.909612  66.826169  22.216858
  8583.562  8583.540  0.500  0.557871  116.754102  66.833136  22.253037
  8588.070  8588.050  0.500  0.556247  116.537609  66.817615  22.282268
  8592.593  8592.580  0.500  0.553834  105.323714  60.533953  20.219797
  8597.149  8597.130  0.500  0.553004  115.368281  66.362080  22.199816
