# XDI/1.0 BlueSky/1.10.0 BMM/2023-1.0-py310-tiled
# Beamline.name: BMM (06BM) -- Beamline for Materials Measurement (NIST)
# Beamline.xray_source: NSLS-II three-pole wiggler
# Beamline.collimation: paraboloid mirror, 5 nm Rh on 30 nm Pt
# Beamline.focusing: not in use
# Beamline.harmonic_rejection: flat mirror, Si stripe, pitch = 7.0 mrad relative to beam
# Beamline.software: Bluesky 1.10.0, Ophyd 1.7.0, DataBroker 2.0.0b13, Python 3.10.8, 2023-1.0-py310-tiled
# Detector.I0: 10 cm N2
# Detector.I1: 25 cm N2
# Detector.I2: 25 cm N2
# Element.symbol: Eu
# Element.edge: L3
# Element.reference: Eu
# Element.reference_material: Eu2O3
# Facility.name: NSLS-II
# Facility.energy: 3.0
# Facility.current: 400.6
# Facility.mode: top-off
# Facility.GUP: 123456
# Facility.SAF: 301027
# Facility.cycle: 2023-2
# Mono.name: Si(111)
# Mono.d_spacing: 3.1351860
# Mono.encoder_resolution: 0.0000050 deg/ct
# Mono.angle_offset: 16.0754326 deg
# Mono.scan_mode: pseudo channel cut
# Mono.scan_type: step
# Mono.direction: forward in energy
# Sample.name: monoclinic Eu2O3
# Sample.prep: Powder in PEG pellet
# Sample.x: 123.848 mm
# Sample.y: 114.690 mm
# Sample.SDD_position: 205.000 mm
# Scan.experimenters: Bruce Ravel
# Scan.edge_energy: 6976.9
# Scan.start_time: 2023-05-08T17:27:10
# Scan.end_time: 2023-05-08T17:33:22
# Scan.transient_id: 75446
# Scan.uid: 143901b7-55d4-48b3-8fb7-0874baeea466
# Scan.plot_hint: ln(I0/It)  --  ln($5/$6)
# Column.1: energy eV
# Column.2: requested_energy eV
# Column.3: measurement_time seconds
# Column.4: xmu 
# Column.5: I0 nA
# Column.6: It nA
# Column.7: Ir nA
# ///////////
# sample courtesy Martin Stennett, University of Sheffield
# -----------
# energy  requested_energy  measurement_time  xmu  I0  It  Ir
  6776.898  6776.900  0.500  1.708306  151.878652  27.516218  6.796956
  6786.939  6786.900  0.500  1.698206  152.057744  27.828327  6.916501
  6796.974  6796.900  0.500  1.687846  151.111326  27.943104  6.987618
  6806.932  6806.900  0.500  1.677781  151.968511  28.385883  7.142048
  6816.919  6816.900  0.500  1.667675  152.018846  28.683703  7.260974
  6826.915  6826.900  0.500  1.658028  151.934690  28.945724  7.372618
  6836.914  6836.900  0.500  1.647937  152.235633  29.297211  7.506606
  6846.916  6846.900  0.500  1.637781  151.855128  29.522306  7.608353
  6856.908  6856.900  0.500  1.628008  152.097352  29.859789  7.741501
  6866.916  6866.900  0.500  1.618270  152.287305  30.189652  7.873473
  6876.894  6876.900  0.500  1.608848  152.437513  30.505478  8.002290
  6886.894  6886.900  0.500  1.599469  152.472078  30.799933  8.122390
  6896.889  6896.900  0.500  1.590601  152.576237  31.095520  8.249252
  6906.902  6906.900  0.500  1.581301  152.614826  31.393974  8.374880
  6916.896  6916.900  0.500  1.572487  152.529741  31.654269  8.490150
  6926.903  6926.900  0.500  1.563796  152.476679  31.919442  8.606138
  6936.899  6936.900  0.500  1.556200  152.489016  32.165434  8.714869
  6946.905  6946.900  0.500  1.551116  152.503042  32.332366  8.794861
  6948.893  6948.900  0.500  1.550671  152.499474  32.345990  8.805073
  6950.885  6950.900  0.500  1.550556  152.502652  32.350401  8.808845
  6952.887  6952.900  0.500  1.550844  152.513249  32.343330  8.810920
  6954.892  6954.900  0.500  1.551107  152.513121  32.334785  8.809113
  6956.888  6956.900  0.500  1.552494  152.508158  32.288911  8.796173
  6958.892  6958.900  0.500  1.554544  152.520146  32.225331  8.775414
  6960.886  6960.900  0.500  1.557255  152.518498  32.137735  8.744201
  6962.890  6962.900  0.500  1.561905  152.519633  31.988883  8.690351
  6964.891  6964.900  0.500  1.569273  152.536663  31.757584  8.605764
  6966.891  6966.900  0.500  1.581615  152.538732  31.368494  8.462324
  6967.382  6967.400  0.500  1.585745  152.533085  31.238039  8.411956
  6967.881  6967.900  0.500  1.590754  152.533511  31.082060  8.355266
  6968.383  6968.400  0.500  1.596369  152.527117  30.906712  8.289366
  6968.882  6968.900  0.500  1.603047  152.516379  30.698846  8.212622
  6969.384  6969.400  0.500  1.610579  152.505175  30.466245  8.126733
  6969.881  6969.900  0.500  1.618388  152.507864  30.229787  8.038180
  6970.383  6970.400  0.500  1.625902  152.518577  30.005601  7.956358
  6970.887  6970.900  0.500  1.633343  152.513453  29.782170  7.873082
  6971.382  6971.400  0.500  1.642487  152.514455  29.511273  7.775361
  6971.886  6971.900  0.500  1.653407  152.483615  29.184876  7.654734
  6972.386  6972.400  0.500  1.667066  152.504450  28.792878  7.514464
  6972.888  6972.900  0.500  1.684095  152.494703  28.304912  7.337493
  6973.388  6973.400  0.500  1.705424  152.494722  27.707575  7.122479
  6973.890  6973.900  0.500  1.731077  152.496309  27.006118  6.873552
  6974.389  6974.400  0.500  1.759033  152.490334  26.260554  6.610527
  6974.891  6974.900  0.500  1.790557  152.486285  25.444956  6.325990
  6975.387  6975.400  0.500  1.827079  152.490433  24.533080  6.013660
  6975.886  6975.900  0.500  1.871818  152.483358  23.458611  5.651624
  6976.392  6976.400  0.500  1.924736  152.479476  22.248931  5.247725
  6976.891  6976.900  0.500  1.987392  152.476802  20.897311  4.805069
  6977.398  6977.400  0.500  2.067346  152.472021  19.290930  4.291070
  6977.894  6977.900  0.500  2.165381  152.475667  17.489904  3.733052
  6978.389  6978.400  0.500  2.280747  152.474262  15.584068  3.164111
  6978.888  6978.900  0.500  2.415971  152.478279  13.613350  2.600014
  6979.397  6979.400  0.500  2.569088  152.468793  11.679931  2.071635
  6979.894  6979.900  0.500  2.726246  152.466819  9.981172  1.629546
  6980.399  6980.400  0.500  2.868078  152.455252  8.660679  1.304906
  6980.900  6980.900  0.500  2.988429  152.460459  7.678902  1.076231
  6981.398  6981.400  0.500  3.086333  152.453790  6.962430  0.916277
  6981.895  6981.900  0.500  3.158960  152.446234  6.474371  0.810650
  6982.394  6982.400  0.500  3.203125  152.437838  6.194313  0.749896
  6982.900  6982.900  0.500  3.217745  152.435355  6.104313  0.729493
  6983.401  6983.400  0.500  3.202583  152.440982  6.197802  0.746694
  6983.899  6983.900  0.500  3.160229  152.432340  6.465573  0.802605
  6984.399  6984.400  0.500  3.094929  152.423524  6.901470  0.896979
  6984.898  6984.900  0.500  3.015929  152.406480  7.467959  1.023960
  6985.394  6985.400  0.500  2.924707  152.411831  8.181528  1.188440
  6985.898  6985.900  0.500  2.825627  152.392448  9.032530  1.391359
  6986.400  6986.400  0.500  2.727678  152.428046  9.964359  1.619399
  6986.902  6986.900  0.500  2.638041  152.413760  10.897767  1.854710
  6987.398  6987.400  0.500  2.555236  152.398975  11.837424  2.097023
  6987.898  6987.900  0.500  2.481608  152.382026  12.740458  2.335440
  6988.394  6988.400  0.500  2.418580  152.388696  13.569909  2.557861
  6988.899  6988.900  0.500  2.367424  152.379588  14.281296  2.752434
  6989.401  6989.400  0.500  2.325417  152.384818  14.894505  2.924043
  6989.900  6989.900  0.500  2.291080  152.382914  15.414623  3.070724
  6990.404  6990.400  0.500  2.264248  152.381538  15.833681  3.190499
  6990.905  6990.900  0.500  2.244681  152.381910  16.146584  3.283353
  6991.402  6991.400  0.500  2.230070  152.370787  16.383037  3.355673
  6991.900  6991.900  0.500  2.218814  152.374288  16.568876  3.415035
  6992.403  6992.400  0.500  2.210245  152.368047  16.710782  3.460787
  6992.910  6992.900  0.500  2.203819  152.373501  16.819109  3.498633
  6993.403  6993.400  0.500  2.198759  152.365189  16.903504  3.528517
  6993.904  6993.900  0.500  2.194381  152.355704  16.976615  3.554950
  6994.405  6994.400  0.500  2.190706  152.350968  17.038588  3.576059
  6994.898  6994.900  0.500  2.187925  152.342712  17.085113  3.593351
  6995.404  6995.400  0.500  2.185448  152.338186  17.126974  3.606849
  6995.895  6995.900  0.500  2.183310  152.342488  17.164126  3.617370
  6996.402  6996.400  0.500  2.181568  152.337278  17.193467  3.625095
  6996.900  6996.900  0.500  2.180361  152.335288  17.213998  3.630756
  6997.406  6997.400  0.500  2.179381  152.322309  17.229406  3.635164
  6997.901  6997.900  0.500  2.178575  152.313414  17.242298  3.637731
  6998.405  6998.400  0.500  2.178173  152.306954  17.248497  3.639423
  6998.894  6998.900  0.500  2.177871  152.302978  17.253251  3.642903
  6999.400  6999.400  0.500  2.177697  152.314010  17.257506  3.645700
  6999.900  6999.900  0.500  2.177571  152.319281  17.260271  3.649823
  7000.400  7000.400  0.500  2.177421  152.313853  17.262258  3.652436
  7000.906  7000.900  0.500  2.177020  152.305925  17.268276  3.657772
  7001.409  7001.400  0.500  2.176719  152.305037  17.273379  3.661990
  7001.899  7001.900  0.500  2.175619  152.296148  17.291378  3.669163
  7002.893  7002.890  0.500  2.172493  152.277541  17.343398  3.684537
  7003.898  7003.890  0.500  2.169451  152.295422  17.398276  3.697212
  7004.920  7004.910  0.500  2.168307  152.287492  17.417278  3.698341
  7005.969  7005.960  0.500  2.170436  152.300590  17.381733  3.679729
  7007.036  7007.020  0.500  2.176646  152.300686  17.274151  3.637558
  7008.111  7008.100  0.500  2.186124  152.266086  17.107304  3.577940
  7009.213  7009.200  0.500  2.198620  152.254354  16.893567  3.503389
  7010.334  7010.320  0.500  2.213311  152.261028  16.647924  3.422602
  7011.475  7011.460  0.500  2.230282  152.248981  16.366477  3.334238
  7012.622  7012.610  0.500  2.247806  152.233904  16.080580  3.248314
  7013.811  7013.790  0.500  2.265562  152.222371  15.796371  3.165679
  7014.965  7014.980  0.500  2.281246  152.205628  15.548853  3.097400
  7016.189  7016.200  0.500  2.294458  152.193276  15.343515  3.042597
  7017.425  7017.430  0.500  2.302681  152.190636  15.217607  3.010771
  7018.670  7018.680  0.500  2.304790  152.187531  15.185239  3.005958
  7019.943  7019.950  0.500  2.300538  152.178783  15.249062  3.027809
  7021.231  7021.240  0.500  2.290819  152.166957  15.396792  3.072467
  7022.542  7022.550  0.500  2.276921  152.163546  15.611922  3.134690
  7023.877  7023.880  0.500  2.260672  152.137122  15.864921  3.208875
  7025.229  7025.230  0.500  2.243884  152.137867  16.133578  3.286901
  7026.600  7026.600  0.500  2.228299  152.128281  16.385969  3.362506
  7027.981  7027.980  0.500  2.215337  152.126302  16.599519  3.429248
  7029.399  7029.390  0.500  2.205107  152.120944  16.769616  3.484938
  7030.823  7030.810  0.500  2.197309  152.107633  16.899427  3.528487
  7032.259  7032.250  0.500  2.191999  152.084080  16.986771  3.561220
  7033.719  7033.710  0.500  2.188134  152.061532  17.050015  3.586098
  7035.195  7035.190  0.500  2.186196  152.054346  17.082282  3.603413
  7036.694  7036.690  0.500  2.185556  152.050680  17.092813  3.614420
  7038.223  7038.210  0.500  2.185597  152.653217  17.159842  3.634729
  7039.753  7039.750  0.500  2.185330  152.666299  17.165892  3.640510
  7041.320  7041.310  0.500  2.184502  152.648718  17.178143  3.647508
  7042.884  7042.880  0.500  2.183559  152.635041  17.192796  3.652193
  7044.484  7044.480  0.500  2.182399  152.629137  17.212090  3.657224
  7046.096  7046.090  0.500  2.181053  152.615709  17.233751  3.660723
  7047.739  7047.730  0.500  2.179991  152.588360  17.248982  3.661412
  7049.385  7049.380  0.500  2.178946  152.573559  17.265344  3.660839
  7051.055  7051.050  0.500  2.177923  152.561302  17.281624  3.658790
  7052.753  7052.740  0.500  2.177399  152.560901  17.290633  3.655381
  7054.452  7054.450  0.500  2.177672  152.563095  17.286168  3.647912
  7056.190  7056.180  0.500  2.179046  152.561683  17.262269  3.637508
  7057.939  7057.930  0.500  2.181220  152.555636  17.224091  3.623291
  7059.704  7059.690  0.500  2.183545  152.567225  17.185404  3.611457
  7061.488  7061.480  0.500  2.184704  152.574403  17.166298  3.604209
  7063.289  7063.280  0.500  2.184504  151.903970  17.094286  3.588373
  7065.116  7065.110  0.500  2.183548  152.453137  17.172492  3.605162
  7066.956  7066.950  0.500  2.182904  152.465633  17.184970  3.610369
  7068.821  7068.810  0.500  2.182893  152.422598  17.180306  3.612791
  7070.699  7070.690  0.500  2.183694  152.113582  17.131748  3.607973
  7072.605  7072.590  0.500  2.184403  152.396620  17.151458  3.617663
  7074.525  7074.510  0.500  2.184485  152.188272  17.126608  3.618766
  7076.467  7076.450  0.500  2.183961  152.239152  17.141307  3.627646
  7078.417  7078.410  0.500  2.183025  152.341548  17.168899  3.639899
  7080.390  7080.380  0.500  2.181756  152.358204  17.192588  3.650351
  7082.394  7082.380  0.500  2.179644  151.928153  17.180307  3.653594
  7084.397  7084.390  0.500  2.176768  152.163013  17.256423  3.676319
  7086.434  7086.420  0.500  2.173435  152.245224  17.323389  3.695852
  7088.488  7088.480  0.500  2.169743  152.247620  17.387740  3.716369
  7090.561  7090.550  0.500  2.165853  152.218606  17.452178  3.736732
  7092.647  7092.640  0.500  2.161489  152.188319  17.525017  3.759177
  7094.763  7094.750  0.500  2.156905  152.172978  17.603761  3.785069
  7096.893  7096.880  0.500  2.151438  152.153482  17.697995  3.814203
  7099.024  7099.020  0.500  2.145643  152.149052  17.800347  3.845536
  7101.206  7101.190  0.500  2.139765  152.122735  17.902178  3.877956
  7103.389  7103.380  0.500  2.134680  152.114669  17.992493  3.906886
  7105.587  7105.580  0.500  2.130759  152.105360  18.062082  3.932601
  7107.813  7107.800  0.500  2.128547  152.065527  18.097329  3.949567
  7110.061  7110.050  0.500  2.127226  152.010480  18.114690  3.958303
  7112.318  7112.310  0.500  2.127325  151.823444  18.090616  3.956285
  7114.603  7114.590  0.500  2.128173  151.729378  18.064085  3.950790
  7116.902  7116.890  0.500  2.129978  151.686952  18.026469  3.940303
  7119.222  7119.210  0.500  2.131230  151.583350  17.991613  3.930444
  7121.563  7121.550  0.500  2.131621  151.487172  17.973176  3.924419
  7123.912  7123.900  0.500  2.132981  151.406952  17.939231  3.914629
  7126.290  7126.280  0.500  2.133604  151.288814  17.914069  3.907413
  7128.688  7128.670  0.500  2.132409  151.133559  17.917091  3.906912
  7131.100  7131.090  0.500  2.130743  150.942461  17.924276  3.908595
  7133.531  7133.520  0.500  2.127309  150.872232  17.977553  3.921390
  7135.981  7135.970  0.500  2.122739  150.866019  18.059156  3.943063
  7138.465  7138.450  0.500  2.118227  150.858793  18.139957  3.968074
  7140.945  7140.940  0.500  2.114318  150.861858  18.211385  3.990969
  7143.465  7143.450  0.500  2.111024  150.872991  18.272807  4.014878
  7145.985  7145.970  0.500  2.107853  150.878639  18.331542  4.039146
  7148.528  7148.520  0.500  2.105045  150.869119  18.381929  4.061677
  7151.100  7151.090  0.500  2.103126  150.855436  18.415556  4.079463
  7153.675  7153.670  0.500  2.102229  150.834343  18.429504  4.090095
  7156.294  7156.280  0.500  2.100978  150.818675  18.450671  4.102242
  7158.910  7158.900  0.500  2.100292  150.797370  18.460708  4.110494
  7161.559  7161.550  0.500  2.099304  150.753412  18.473583  4.118141
  7164.219  7164.210  0.500  2.097921  150.689827  18.491337  4.126881
  7166.900  7166.890  0.500  2.096759  150.624798  18.504853  4.134257
  7169.605  7169.590  0.500  2.094879  150.567573  18.532626  4.145514
  7172.321  7172.310  0.500  2.092313  150.506149  18.572660  4.158649
  7175.063  7175.050  0.500  2.088975  150.446027  18.627317  4.176722
  7177.805  7177.800  0.500  2.085226  150.420166  18.694065  4.196810
  7180.587  7180.580  0.500  2.081020  150.372709  18.766945  4.220089
  7183.375  7183.370  0.500  2.076483  150.338159  18.847945  4.245666
  7186.200  7186.190  0.500  2.072406  150.298181  18.919923  4.270547
  7189.028  7189.020  0.500  2.068808  150.285976  18.986571  4.294597
  7191.876  7191.870  0.500  2.064937  147.959691  18.765173  4.253441
  7194.754  7194.750  0.500  2.061108  150.050757  19.103382  4.340067
  7197.651  7197.640  0.500  2.057745  150.042787  19.166721  4.362546
  7200.556  7200.550  0.500  2.055902  150.001492  19.196801  4.377828
  7203.477  7203.470  0.500  2.054073  149.943412  19.224487  4.390733
  7206.427  7206.420  0.500  2.052310  149.871339  19.249159  4.402211
  7209.399  7209.390  0.500  2.050596  149.784173  19.270955  4.412332
  7212.379  7212.370  0.500  2.048987  149.714352  19.292993  4.420226
  7215.387  7215.380  0.500  2.047267  149.663944  19.319698  4.430461
  7218.405  7218.400  0.500  2.045440  149.580673  19.344257  4.440258
  7221.456  7221.450  0.500  2.043112  149.524833  19.382106  4.452587
  7224.514  7224.510  0.500  2.040538  149.436002  19.420519  4.467917
  7227.602  7227.590  0.500  2.037523  147.209652  19.188956  4.420400
  7230.701  7230.690  0.500  2.034451  149.464330  19.542801  4.509166
  7233.821  7233.810  0.500  2.031442  149.388908  19.591808  4.528007
  7236.961  7236.950  0.500  2.028435  149.324429  19.642327  4.548971
  7240.107  7240.100  0.500  2.024913  149.268753  19.704267  4.571737
  7243.291  7243.280  0.500  2.021038  149.190043  19.770339  4.597993
  7246.482  7246.470  0.500  2.017315  148.953562  19.812632  4.616519
  7249.705  7249.690  0.500  2.014388  149.028864  19.880750  4.642183
  7252.934  7252.920  0.500  2.011725  148.782340  19.900787  4.656731
  7256.183  7256.170  0.500  2.009797  149.085567  19.979831  4.685378
  7259.458  7259.450  0.500  2.007885  148.847422  19.986090  4.696783
  7262.747  7262.740  0.500  2.005975  147.189710  19.801293  4.661100
  7266.057  7266.050  0.500  2.003563  148.449587  20.019019  4.720881
  7269.377  7269.370  0.500  2.000902  149.247096  20.180186  4.766655
  7272.734  7272.720  0.500  1.997692  149.001934  20.211809  4.781122
  7276.103  7276.090  0.500  1.994107  149.254132  20.318730  4.812946
  7279.489  7279.470  0.500  1.990503  149.166677  20.380151  4.834685
  7282.894  7282.880  0.500  1.986722  149.055731  20.442141  4.856997
  7286.320  7286.300  0.500  1.983369  148.837485  20.480758  4.875545
  7289.758  7289.750  0.500  1.980120  148.906231  20.556912  4.902230
  7293.241  7293.210  0.500  1.976787  148.848661  20.617566  4.928021
  7296.702  7296.690  0.500  1.973532  148.776267  20.674724  4.953014
  7300.223  7300.190  0.500  1.969723  148.476138  20.711742  4.971196
  7303.741  7303.710  0.500  1.965650  148.787088  20.839837  5.014142
  7307.267  7307.250  0.500  1.961551  148.686420  20.911276  5.040751
  7310.817  7310.800  0.500  1.958084  148.618547  20.974313  5.065045
  7314.394  7314.380  0.500  1.954670  148.524005  21.032671  5.088038
  7317.992  7317.980  0.500  1.951707  148.451853  21.084831  5.110200
  7321.610  7321.590  0.500  1.948686  148.373696  21.137496  5.131523
  7325.256  7325.220  0.500  1.945946  148.301141  21.185120  5.152867
  7328.895  7328.880  0.500  1.943383  148.221181  21.228035  5.173430
  7332.565  7332.550  0.500  1.940460  148.141740  21.278761  5.192768
  7336.271  7336.240  0.500  1.938101  148.089084  21.321437  5.212000
  7339.970  7339.950  0.500  1.935260  147.263880  21.262942  5.207876
  7343.711  7343.680  0.500  1.931956  147.847882  21.417921  5.254967
  7347.454  7347.420  0.500  1.928529  147.797379  21.484096  5.281375
  7351.222  7351.190  0.500  1.925165  147.730123  21.546692  5.307133
  7354.984  7354.980  0.500  1.921848  147.654785  21.607261  5.332271
  7358.803  7358.780  0.500  1.918439  147.571917  21.668876  5.358381
  7362.618  7362.610  0.500  1.914664  147.498766  21.740043  5.387494
  7366.473  7366.450  0.500  1.910778  147.406304  21.811002  5.416693
  7370.325  7370.310  0.500  1.906704  147.337624  21.889840  5.448053
  7374.208  7374.190  0.500  1.902700  147.242803  21.963513  5.479628
  7378.117  7378.090  0.500  1.898985  147.128983  22.028218  5.508434
  7382.012  7382.010  0.500  1.895321  147.050971  22.097353  5.536938
  7385.970  7385.950  0.500  1.892224  146.951589  22.150931  5.562888
  7389.913  7389.910  0.500  1.888724  146.878895  22.217586  5.591056
  7393.896  7393.880  0.500  1.885275  146.799247  22.282266  5.619319
  7397.904  7397.880  0.500  1.881663  146.706578  22.348783  5.647401
  7401.908  7401.890  0.500  1.878076  146.602110  22.413112  5.675279
  7405.927  7405.930  0.500  1.874452  146.505554  22.479669  5.703491
  7409.970  7409.980  0.500  1.871209  146.407448  22.537588  5.730635
  7414.038  7414.050  0.500  1.867854  146.303103  22.597212  5.757229
  7418.172  7418.140  0.500  1.864109  146.185900  22.663818  5.784101
  7422.261  7422.250  0.500  1.860262  146.082494  22.735078  5.813908
  7426.397  7426.380  0.500  1.856528  145.980964  22.804286  5.842576
  7430.536  7430.530  0.500  1.852828  145.865658  22.870741  5.872541
  7434.696  7434.690  0.500  1.849485  145.764018  22.931330  5.901135
  7438.887  7438.880  0.500  1.845451  145.628390  23.002603  5.932950
  7443.085  7443.080  0.500  1.841279  145.429155  23.067170  5.962587
  7447.316  7447.310  0.500  1.836934  145.494015  23.177950  6.004576
  7451.557  7451.550  0.500  1.832931  145.187266  23.221843  6.028730
  7455.824  7455.810  0.500  1.828873  145.223050  23.322005  6.067989
  7460.106  7460.090  0.500  1.824858  143.197305  23.089221  6.021053
  7464.398  7464.390  0.500  1.821133  144.951459  23.459265  6.132126
  7468.716  7468.710  0.500  1.817254  144.897862  23.541739  6.168329
  7473.065  7473.050  0.500  1.813707  144.816434  23.612121  6.201159
  7477.425  7477.410  0.500  1.809918  144.655128  23.675356  6.231446
  7481.809  7481.790  0.500  1.806219  144.530850  23.742668  6.263325
  7486.193  7486.180  0.500  1.802771  144.376086  23.799160  6.291190
  7490.614  7490.600  0.500  1.799468  144.227090  23.853258  6.318802
  7495.043  7495.030  0.500  1.796024  144.118776  23.917587  6.349121
  7499.493  7499.480  0.500  1.792231  143.977102  23.984876  6.379816
  7503.966  7503.950  0.500  1.788366  143.834547  24.053915  6.410804
  7508.464  7508.440  0.500  1.784312  143.671855  24.124305  6.444279
  7512.968  7512.950  0.500  1.780107  143.515943  24.199678  6.480231
  7517.477  7517.480  0.500  1.775736  143.378521  24.282399  6.516587
  7522.044  7522.030  0.500  1.771313  143.239288  24.366353  6.555598
  7526.618  7526.600  0.500  1.766897  143.091977  24.449035  6.594217
  7531.197  7531.180  0.500  1.762633  142.944942  24.528264  6.631026
  7535.779  7535.790  0.500  1.758273  142.772443  24.605731  6.670279
  7540.418  7540.410  0.500  1.754314  142.623984  24.677637  6.705435
  7545.047  7545.060  0.500  1.750027  142.446811  24.752876  6.743049
  7549.736  7549.720  0.500  1.746074  142.302710  24.825781  6.779663
  7554.379  7554.400  0.500  1.742018  142.133295  24.897001  6.815668
  7559.125  7559.100  0.500  1.737589  141.974158  24.979508  6.853399
  7563.838  7563.820  0.500  1.733257  141.821555  25.060987  6.891614
  7568.537  7568.560  0.500  1.729003  141.676219  25.142030  6.929039
  7573.284  7573.310  0.500  1.725142  141.505079  25.208824  6.962023
  7578.069  7578.090  0.500  1.721375  141.317874  25.270473  6.997010
  7582.868  7582.890  0.500  1.717584  141.146917  25.335776  7.027204
  7587.680  7587.700  0.500  1.713960  140.933298  25.389271  7.056309
  7592.509  7592.530  0.500  1.710820  140.838892  25.452046  7.089581
