# XDI/1.0 BlueSky/1.10.0 BMM/2023-1.0-py310-tiled
# Beamline.name: BMM (06BM) -- Beamline for Materials Measurement (NIST)
# Beamline.xray_source: NSLS-II three-pole wiggler
# Beamline.collimation: paraboloid mirror, 5 nm Rh on 30 nm Pt
# Beamline.focusing: not in use
# Beamline.harmonic_rejection: flat mirror, Si stripe, pitch = 7.0 mrad relative to beam
# Beamline.software: Bluesky 1.10.0, Ophyd 1.7.0, DataBroker 2.0.0b13, Python 3.10.8, 2023-1.0-py310-tiled
# Detector.I0: 10 cm N2
# Detector.I1: 25 cm N2
# Detector.I2: 25 cm N2
# Element.symbol: Eu
# Element.edge: L3
# Element.reference: Eu
# Element.reference_material: Eu2O3
# Facility.name: NSLS-II
# Facility.energy: 3.0
# Facility.current: 400.6
# Facility.mode: top-off
# Facility.GUP: 123456
# Facility.SAF: 301027
# Facility.cycle: 2023-2
# Mono.name: Si(111)
# Mono.d_spacing: 3.1351860
# Mono.encoder_resolution: 0.0000050 deg/ct
# Mono.angle_offset: 16.0754326 deg
# Mono.scan_mode: pseudo channel cut
# Mono.scan_type: step
# Mono.direction: forward in energy
# Sample.name: EuTiO3
# Sample.prep: powder on tape
# Sample.x: 123.848 mm
# Sample.y: 114.690 mm
# Sample.SDD_position: 205.000 mm
# Scan.experimenters: Bruce Ravel
# Scan.edge_energy: 6976.9
# Scan.start_time: 2023-05-08T17:40:50
# Scan.end_time: 2023-05-08T17:47:00
# Scan.transient_id: 75456
# Scan.uid: fdb6714c-37bf-4ddf-aa4d-784a61bb3ba9
# Scan.plot_hint: ln(I0/It)  --  ln($5/$6)
# Column.1: energy eV
# Column.2: requested_energy eV
# Column.3: measurement_time seconds
# Column.4: xmu 
# Column.5: I0 nA
# Column.6: It nA
# Column.7: Ir nA
# ///////////
# material made by Fatih Dogan
# -----------
# energy  requested_energy  measurement_time  xmu  I0  It  Ir
  6776.910  6776.900  0.500  0.805569  151.786119  67.823155  16.763641
  6786.913  6786.900  0.500  0.799102  151.949801  68.336768  16.994642
  6796.913  6796.900  0.500  0.792643  151.028212  68.362471  17.106614
  6806.901  6806.900  0.500  0.786100  151.871830  69.195610  17.419593
  6816.962  6816.900  0.500  0.779731  151.912612  69.656391  17.641514
  6826.909  6826.900  0.500  0.773561  151.797593  70.034433  17.845200
  6836.923  6836.900  0.500  0.767051  152.102219  70.633322  18.103488
  6846.912  6846.900  0.500  0.760902  151.758036  70.908182  18.285246
  6856.918  6856.900  0.500  0.754561  152.000675  71.473317  18.538321
  6866.916  6866.900  0.500  0.748270  152.189571  72.013713  18.788920
  6876.916  6876.900  0.500  0.742099  152.369603  72.545243  19.038762
  6886.918  6886.900  0.500  0.735990  152.453005  73.029678  19.276246
  6896.915  6896.900  0.500  0.729871  152.555904  73.527527  19.518577
  6906.910  6906.900  0.500  0.724520  152.586598  73.936942  19.735900
  6916.911  6916.900  0.500  0.718358  152.502036  74.352733  19.955158
  6926.909  6926.900  0.500  0.712799  152.449901  74.741605  20.164717
  6937.714  6936.900  0.500  0.707254  152.394927  75.130110  20.372901
  6946.887  6946.900  0.500  0.702715  152.493540  75.520728  20.556477
  6948.880  6948.900  0.500  0.701767  152.476849  75.584123  20.584307
  6950.887  6950.900  0.500  0.700984  152.471562  75.640702  20.609520
  6952.881  6952.900  0.500  0.700336  152.491493  75.699600  20.632585
  6954.890  6954.900  0.500  0.699987  152.479925  75.720270  20.640755
  6956.884  6956.900  0.500  0.699945  152.461024  75.714082  20.636816
  6958.890  6958.900  0.500  0.700399  152.478565  75.688383  20.623803
  6960.890  6960.900  0.500  0.701389  152.488833  75.618627  20.584552
  6962.896  6962.900  0.500  0.703714  152.492144  75.444616  20.507033
  6964.891  6964.900  0.500  0.707999  152.490852  75.121417  20.364378
  6966.897  6966.900  0.500  0.716914  152.496957  74.457690  20.093738
  6967.384  6967.400  0.500  0.720564  152.493739  74.184800  19.990221
  6967.883  6967.900  0.500  0.725032  152.493162  73.853836  19.862981
  6968.381  6968.400  0.500  0.730230  152.480302  73.464757  19.715137
  6968.880  6968.900  0.500  0.737205  152.469743  72.949056  19.525741
  6969.382  6969.400  0.500  0.745449  152.470945  72.350688  19.307801
  6969.885  6969.900  0.500  0.756949  152.467970  71.522024  19.026999
  6970.385  6970.400  0.500  0.771683  152.460691  70.472619  18.694290
  6970.885  6970.900  0.500  0.791141  152.452008  69.110660  18.278912
  6971.386  6971.400  0.500  0.816878  152.440312  67.349502  17.749768
  6971.884  6971.900  0.500  0.850587  152.447202  65.119958  17.091359
  6972.386  6972.400  0.500  0.891491  152.444118  62.508810  16.320307
  6972.886  6972.900  0.500  0.942179  152.444640  59.419510  15.410442
  6973.388  6973.400  0.500  1.002908  152.446716  55.919159  14.381710
  6973.890  6973.900  0.500  1.067324  152.433150  52.425963  13.347449
  6974.389  6974.400  0.500  1.120734  152.433950  49.699602  12.514777
  6974.889  6974.900  0.500  1.150560  152.428281  48.237356  11.995423
  6975.393  6975.400  0.500  1.147807  152.420729  48.367952  11.851686
  6975.886  6975.900  0.500  1.115146  152.409422  49.970067  12.029288
  6976.390  6976.400  0.500  1.066438  152.419245  52.467635  12.365400
  6976.893  6976.900  0.500  1.015446  152.412707  55.210083  12.678202
  6977.392  6977.400  0.500  0.968802  152.406172  57.843863  12.852429
  6977.896  6977.900  0.500  0.929682  152.397710  60.148229  12.810342
  6978.395  6978.400  0.500  0.899532  152.390985  61.986561  12.539551
  6978.892  6978.900  0.500  0.876138  152.393195  63.454676  12.064344
  6979.393  6979.400  0.500  0.857321  152.388181  64.657871  11.412590
  6979.888  6979.900  0.500  0.842346  152.393159  65.635563  10.675555
  6980.389  6980.400  0.500  0.831532  152.383778  66.345114  9.965077
  6980.892  6980.900  0.500  0.823853  152.398792  66.863104  9.349229
  6981.389  6981.400  0.500  0.818834  152.391661  67.196437  8.833839
  6981.895  6981.900  0.500  0.816222  152.382150  67.367929  8.423590
  6982.398  6982.400  0.500  0.815217  152.378427  67.434068  8.155013
  6982.896  6982.900  0.500  0.815804  152.385306  67.397496  8.040457
  6983.397  6983.400  0.500  0.817322  152.381038  67.293378  8.087608
  6983.893  6983.900  0.500  0.819658  152.370071  67.131545  8.299448
  6984.392  6984.400  0.500  0.822434  152.356532  66.939525  8.651528
  6984.896  6984.900  0.500  0.825674  152.362556  66.725605  9.098454
  6985.394  6985.400  0.500  0.829351  152.364484  66.481575  9.602718
  6985.898  6985.900  0.500  0.833006  152.355427  66.235072  10.148129
  6986.400  6986.400  0.500  0.835835  152.347691  66.044583  10.680052
  6986.898  6986.900  0.500  0.837883  152.350116  65.910538  11.169602
  6987.398  6987.400  0.500  0.838206  152.348447  65.888518  11.632820
  6987.894  6987.900  0.500  0.837148  152.333894  65.951994  12.056330
  6988.394  6988.400  0.500  0.835348  152.330579  66.069329  12.429986
  6988.897  6988.900  0.500  0.833230  152.329215  66.208857  12.742277
  6989.397  6989.400  0.500  0.831645  152.324082  66.311611  12.997060
  6989.896  6989.900  0.500  0.830167  152.324045  66.409710  13.214303
  6990.404  6990.400  0.500  0.828714  152.322390  66.505567  13.392579
  6990.903  6990.900  0.500  0.828235  152.317295  66.535147  13.520204
  6991.400  6991.400  0.500  0.827981  152.322643  66.554431  13.624861
  6991.896  6991.900  0.500  0.828523  152.319488  66.516970  13.701337
  6992.397  6992.400  0.500  0.830071  152.319183  66.413951  13.749879
  6992.902  6992.900  0.500  0.832276  152.305249  66.261610  13.778452
  6993.399  6993.400  0.500  0.835279  152.296606  66.059194  13.785392
  6993.902  6993.900  0.500  0.839066  152.298592  65.810363  13.776753
  6994.403  6994.400  0.500  0.842470  152.280713  65.579012  13.762748
  6994.900  6994.900  0.500  0.845240  152.296936  65.404576  13.752316
  6995.402  6995.400  0.500  0.847211  152.294159  65.274587  13.740229
  6995.899  6995.900  0.500  0.847965  152.282150  65.220238  13.740789
  6996.396  6996.400  0.500  0.848049  152.292839  65.219368  13.747589
  6996.896  6996.900  0.500  0.847402  152.285964  65.258638  13.759506
  6997.397  6997.400  0.500  0.846254  152.276755  65.329652  13.776671
  6997.899  6997.900  0.500  0.845026  152.271124  65.407471  13.796830
  6998.403  6998.400  0.500  0.844300  152.269410  65.454234  13.809526
  6998.894  6998.900  0.500  0.843955  152.264383  65.474673  13.820584
  6999.392  6999.400  0.500  0.844488  152.261043  65.438331  13.821387
  6999.894  6999.900  0.500  0.845150  152.255734  65.392789  13.821669
  7000.398  7000.400  0.500  0.845762  152.249872  65.350241  13.825499
  7000.906  7000.900  0.500  0.846345  152.245062  65.310117  13.829668
  7001.400  7001.400  0.500  0.846429  152.246254  65.305123  13.839910
  7001.892  7001.900  0.500  0.846204  152.238608  65.316558  13.854746
  7002.897  7002.890  0.500  0.843471  152.235361  65.493852  13.911302
  7003.896  7003.890  0.500  0.838810  152.240601  65.802154  13.983380
  7004.922  7004.910  0.500  0.834167  152.242115  66.108992  14.033029
  7005.963  7005.960  0.500  0.830567  152.237178  66.345283  14.042984
  7007.025  7007.020  0.500  0.827090  152.223262  66.570288  14.015751
  7008.113  7008.100  0.500  0.822925  152.206252  66.840657  13.975358
  7009.209  7009.200  0.500  0.817626  152.194111  67.190451  13.933592
  7010.328  7010.320  0.500  0.812488  152.176885  67.528926  13.881709
  7011.473  7011.460  0.500  0.808460  152.169186  67.798014  13.809173
  7012.616  7012.610  0.500  0.806525  152.163089  67.926602  13.719503
  7013.803  7013.790  0.500  0.805794  152.156062  67.973132  13.620260
  7014.990  7014.980  0.500  0.805748  152.147558  67.972451  13.533475
  7016.210  7016.200  0.500  0.805753  152.696824  68.217509  13.520342
  7017.438  7017.430  0.500  0.805702  152.683692  68.215136  13.490306
  7018.689  7018.680  0.500  0.806634  152.681236  68.150458  13.484781
  7019.962  7019.950  0.500  0.807606  152.678878  68.083243  13.512539
  7021.250  7021.240  0.500  0.808437  152.675405  68.025137  13.569463
  7022.561  7022.550  0.500  0.808358  152.665699  68.026169  13.654800
  7023.889  7023.880  0.500  0.807086  152.654823  68.107935  13.771780
  7025.237  7025.230  0.500  0.805140  152.646357  68.236799  13.899254
  7026.613  7026.600  0.500  0.803553  152.640736  68.342657  14.021092
  7027.987  7027.980  0.500  0.802771  152.630612  68.391580  14.126370
  7029.403  7029.390  0.500  0.802910  152.627289  68.380567  14.205392
  7030.823  7030.810  0.500  0.804299  152.617718  68.281364  14.253774
  7032.257  7032.250  0.500  0.806644  152.590623  68.109370  14.274777
  7033.717  7033.710  0.500  0.809307  152.577722  67.922498  14.285434
  7035.195  7035.190  0.500  0.811778  152.574101  67.753273  14.289478
  7036.704  7036.690  0.500  0.813420  152.562498  67.636939  14.297254
  7038.217  7038.210  0.500  0.814833  152.563470  67.541883  14.300820
  7039.757  7039.750  0.500  0.815517  152.561756  67.494927  14.311139
  7041.320  7041.310  0.500  0.816112  152.549615  67.449445  14.317647
  7042.887  7042.880  0.500  0.815413  152.532634  67.489083  14.336122
  7044.490  7044.480  0.500  0.813524  152.511225  67.607205  14.361150
  7046.096  7046.090  0.500  0.809681  152.493711  67.859706  14.410692
  7047.746  7047.730  0.500  0.804589  152.484654  68.202059  14.473661
  7049.398  7049.380  0.500  0.798546  152.471779  68.609704  14.544877
  7051.057  7051.050  0.500  0.793283  152.460719  68.966747  14.599246
  7052.759  7052.740  0.500  0.789435  152.471532  69.237548  14.632317
  7054.460  7054.450  0.500  0.786782  152.466180  69.419012  14.648282
  7056.198  7056.180  0.500  0.785032  152.458669  69.537190  14.648689
  7057.941  7057.930  0.500  0.784142  152.442305  69.591590  14.637109
  7059.708  7059.690  0.500  0.784323  152.448657  69.581945  14.618871
  7061.490  7061.480  0.500  0.784443  152.455790  69.576842  14.606327
  7063.299  7063.280  0.500  0.784315  151.766924  69.271294  14.536293
  7065.122  7065.110  0.500  0.784172  152.324334  69.535689  14.595355
  7066.965  7066.950  0.500  0.784082  152.334064  69.546374  14.605702
  7068.815  7068.810  0.500  0.783259  152.324158  69.599102  14.630507
  7070.710  7070.690  0.500  0.782417  151.985534  69.502863  14.631964
  7072.598  7072.590  0.500  0.782038  152.274100  69.661221  14.689307
  7074.534  7074.510  0.500  0.782308  152.090681  69.558538  14.693537
  7076.452  7076.450  0.500  0.782053  152.105235  69.582943  14.724369
  7078.419  7078.410  0.500  0.781208  152.214482  69.691799  14.770793
  7080.386  7080.380  0.500  0.780166  152.223158  69.768418  14.812418
  7082.388  7082.380  0.500  0.779606  151.845091  69.634168  14.805640
  7084.400  7084.390  0.500  0.780142  152.031772  69.682377  14.840159
  7086.434  7086.420  0.500  0.780686  152.106371  69.678686  14.861110
  7088.494  7088.480  0.500  0.780877  152.110952  69.667473  14.885499
  7090.563  7090.550  0.500  0.780215  152.092535  69.705117  14.921078
  7092.647  7092.640  0.500  0.778769  152.056711  69.789565  14.968477
  7094.757  7094.750  0.500  0.777020  152.036763  69.902537  15.025888
  7096.893  7096.880  0.500  0.775211  152.027808  70.025042  15.090057
  7099.029  7099.020  0.500  0.773113  152.034073  70.174978  15.159176
  7101.202  7101.190  0.500  0.770091  152.011428  70.376877  15.240502
  7103.389  7103.380  0.500  0.766680  151.993057  70.608785  15.331461
  7105.593  7105.580  0.500  0.763398  151.974123  70.832111  15.417896
  7107.813  7107.800  0.500  0.760365  151.929221  71.026283  15.496095
  7110.058  7110.050  0.500  0.757654  151.877141  71.194688  15.555945
  7112.324  7112.310  0.500  0.755500  151.695906  71.263035  15.581805
  7114.600  7114.590  0.500  0.754104  151.593758  71.314565  15.593712
  7116.895  7116.890  0.500  0.752984  151.539592  71.368938  15.595783
  7119.224  7119.210  0.500  0.753212  151.458238  71.314371  15.576410
  7121.558  7121.550  0.500  0.753776  151.375589  71.235282  15.555778
  7123.912  7123.900  0.500  0.754361  151.283346  71.150249  15.525419
  7126.299  7126.280  0.500  0.754994  151.155339  71.045047  15.493916
  7128.677  7128.670  0.500  0.755267  151.024230  70.964076  15.474651
  7131.106  7131.090  0.500  0.754768  150.831431  70.908824  15.460728
  7133.533  7133.520  0.500  0.753569  150.751744  70.956366  15.476381
  7135.981  7135.970  0.500  0.751791  150.718622  71.067073  15.514368
  7138.461  7138.450  0.500  0.749655  150.750812  71.234192  15.576872
  7140.955  7140.940  0.500  0.747684  150.739830  71.369579  15.639250
  7143.454  7143.450  0.500  0.746380  150.760161  71.472312  15.700492
  7145.983  7145.970  0.500  0.745693  150.767379  71.524859  15.757382
  7148.537  7148.520  0.500  0.744870  150.772601  71.586238  15.815873
  7151.102  7151.090  0.500  0.743256  150.750022  71.691128  15.877208
  7153.682  7153.670  0.500  0.741238  150.728391  71.825617  15.938448
  7156.294  7156.280  0.500  0.739076  150.717575  71.975904  15.997514
  7158.912  7158.900  0.500  0.736133  150.698747  72.179074  16.067105
  7161.561  7161.550  0.500  0.733255  150.653813  72.365488  16.129793
  7164.219  7164.210  0.500  0.730567  150.596968  72.532889  16.184664
  7166.906  7166.890  0.500  0.729110  150.522843  72.602872  16.217865
  7169.605  7169.590  0.500  0.727641  150.457694  72.678127  16.251993
  7172.321  7172.310  0.500  0.726404  150.407460  72.743842  16.286497
  7175.059  7175.050  0.500  0.725566  150.348783  72.776436  16.315004
  7177.812  7177.800  0.500  0.724764  150.315320  72.818585  16.348066
  7180.596  7180.580  0.500  0.724056  150.285439  72.855660  16.380873
  7183.384  7183.370  0.500  0.723624  150.258532  72.874116  16.415426
  7186.198  7186.190  0.500  0.722913  150.198130  72.896634  16.452744
  7189.033  7189.020  0.500  0.721743  150.180625  72.973424  16.502990
  7191.885  7191.870  0.500  0.719880  147.880577  71.989830  16.316411
  7194.768  7194.750  0.500  0.717887  149.950803  73.143289  16.613161
  7197.655  7197.640  0.500  0.716040  149.943962  73.275123  16.677396
  7200.561  7200.550  0.500  0.714314  149.893149  73.376870  16.730501
  7203.479  7203.470  0.500  0.712416  149.843381  73.491857  16.783041
  7206.436  7206.420  0.500  0.710412  149.772949  73.604681  16.831489
  7209.406  7209.390  0.500  0.708937  149.685412  73.670206  16.863675
  7212.383  7212.370  0.500  0.707200  149.619728  73.765913  16.900970
  7215.394  7215.380  0.500  0.705323  149.564975  73.877472  16.941554
  7218.409  7218.400  0.500  0.703374  149.485345  73.982201  16.981672
  7221.463  7221.450  0.500  0.701405  149.412543  74.091909  17.022134
  7224.525  7224.510  0.500  0.699620  149.324182  74.180357  17.062427
  7227.602  7227.590  0.500  0.697897  147.205239  73.253853  16.872971
  7230.710  7230.690  0.500  0.696153  149.362671  74.457161  17.178131
  7233.823  7233.810  0.500  0.694607  149.281304  74.531764  17.225952
  7236.966  7236.950  0.500  0.693158  149.217908  74.608154  17.277510
  7240.109  7240.100  0.500  0.692042  149.158742  74.661834  17.324742
  7243.289  7243.280  0.500  0.690941  149.099580  74.714461  17.373323
  7246.480  7246.470  0.500  0.689461  148.859295  74.704483  17.405888
  7249.703  7249.690  0.500  0.687766  148.941181  74.872387  17.481912
  7252.934  7252.920  0.500  0.686068  148.720271  74.888427  17.523041
  7256.185  7256.170  0.500  0.684047  149.002233  75.182188  17.628407
  7259.465  7259.450  0.500  0.682174  148.772521  75.206977  17.669817
  7262.752  7262.740  0.500  0.680746  147.187211  74.511914  17.539767
  7266.057  7266.050  0.500  0.678886  148.291653  75.210834  17.732273
  7269.382  7269.370  0.500  0.676922  149.169403  75.804729  17.900578
  7272.729  7272.720  0.500  0.674546  148.945695  75.871097  17.945904
  7276.094  7276.090  0.500  0.672580  149.186969  76.143517  18.034952
  7279.475  7279.470  0.500  0.670309  149.100802  76.272622  18.093186
  7282.880  7282.880  0.500  0.668402  148.992168  76.362511  18.147250
  7286.306  7286.300  0.500  0.666471  148.765040  76.393431  18.184479
  7289.763  7289.750  0.500  0.664616  148.839444  76.573575  18.261985
  7293.221  7293.210  0.500  0.662924  148.794059  76.679869  18.323831
  7296.700  7296.690  0.500  0.661436  148.719066  76.755317  18.382540
  7300.201  7300.190  0.500  0.659857  148.441233  76.733022  18.417990
  7303.716  7303.710  0.500  0.657999  148.734513  77.027644  18.525484
  7307.256  7307.250  0.500  0.656052  148.636193  77.126741  18.587549
  7310.811  7310.800  0.500  0.654033  148.555207  77.240515  18.650887
  7314.387  7314.380  0.500  0.652156  148.465568  77.338863  18.708411
  7317.994  7317.980  0.500  0.650291  148.395117  77.446528  18.770168
  7321.594  7321.590  0.500  0.648422  148.310423  77.547111  18.826685
  7325.227  7325.220  0.500  0.646620  148.219625  77.639406  18.881846
  7328.886  7328.880  0.500  0.644939  148.162422  77.739981  18.940127
  7332.561  7332.550  0.500  0.643108  148.091612  77.845296  18.999874
  7336.248  7336.240  0.500  0.641556  148.029594  77.933545  19.049626
  7339.958  7339.950  0.500  0.639519  147.055871  77.578747  18.998392
  7343.695  7343.680  0.500  0.637645  147.776244  78.105002  19.161814
  7347.431  7347.420  0.500  0.635592  147.738218  78.245411  19.231065
  7351.203  7351.190  0.500  0.633358  147.672089  78.385274  19.303878
  7354.991  7354.980  0.500  0.631504  147.592292  78.488282  19.366182
  7358.792  7358.780  0.500  0.629376  147.505003  78.609021  19.438648
  7362.622  7362.610  0.500  0.626997  147.434236  78.758452  19.516713
  7366.461  7366.450  0.500  0.624838  147.338031  78.877121  19.589405
  7370.321  7370.310  0.500  0.623035  147.270577  78.983334  19.658440
  7374.203  7374.190  0.500  0.621295  147.183132  79.073853  19.724600
  7378.096  7378.090  0.500  0.619454  147.078527  79.163288  19.791886
  7382.024  7382.010  0.500  0.617555  146.987762  79.264824  19.860403
  7385.970  7385.950  0.500  0.615537  146.904498  79.379943  19.933862
  7389.930  7389.910  0.500  0.613095  146.816886  79.526557  20.011411
  7393.896  7393.880  0.500  0.610965  146.736221  79.652360  20.086116
  7397.900  7397.880  0.500  0.609080  146.650878  79.756190  20.156546
  7401.905  7401.890  0.500  0.606976  146.547537  79.867890  20.227975
  7405.960  7405.930  0.500  0.605162  146.454697  79.962238  20.291133
  7410.009  7409.980  0.500  0.603147  146.335710  80.058434  20.354925
  7414.068  7414.050  0.500  0.601147  146.231166  80.161390  20.419104
  7418.172  7418.140  0.500  0.599110  146.096400  80.250808  20.480804
  7422.271  7422.250  0.500  0.597156  146.000507  80.354943  20.546382
  7426.402  7426.380  0.500  0.595248  145.905132  80.455867  20.616547
  7430.564  7430.530  0.500  0.592997  145.782818  80.569552  20.686113
  7434.713  7434.690  0.500  0.590716  145.677057  80.694997  20.762867
  7438.915  7438.880  0.500  0.588574  145.547281  80.795947  20.838200
  7443.094  7443.080  0.500  0.586301  145.344497  80.866964  20.904833
  7447.328  7447.310  0.500  0.584164  145.416563  81.080199  21.005033
  7451.545  7451.550  0.500  0.581798  145.116077  81.104322  21.055746
  7455.810  7455.810  0.500  0.579915  145.163634  81.283752  21.150238
  7460.082  7460.090  0.500  0.577745  142.910572  80.196015  20.916362
  7464.379  7464.390  0.500  0.575485  144.891068  81.491351  21.303607
  7468.728  7468.710  0.500  0.573339  144.789323  81.609137  21.383182
  7473.051  7473.050  0.500  0.571245  144.751489  81.758796  21.471488
  7477.389  7477.410  0.500  0.569253  144.597595  81.834694  21.540718
  7481.773  7481.790  0.500  0.567285  144.452286  81.913524  21.608106
  7486.203  7486.180  0.500  0.565224  144.311983  82.002821  21.677628
  7490.609  7490.600  0.500  0.563314  144.168638  82.078001  21.741773
  7495.021  7495.030  0.500  0.560843  144.051360  82.214094  21.822527
  7499.469  7499.480  0.500  0.558621  143.915349  82.319156  21.895654
  7503.940  7503.950  0.500  0.556454  143.766774  82.412590  21.968767
  7508.447  7508.440  0.500  0.554310  143.609692  82.499249  22.036862
  7512.944  7512.950  0.500  0.551909  143.457969  82.610169  22.117314
  7517.469  7517.480  0.500  0.549768  143.875822  83.028425  22.281699
  7522.049  7522.030  0.500  0.547665  143.726673  83.116925  22.361974
  7526.579  7526.600  0.500  0.545120  143.572339  83.239271  22.449053
  7531.168  7531.180  0.500  0.542926  143.434124  83.341795  22.533603
  7535.779  7535.790  0.500  0.540792  143.250710  83.413043  22.610691
  7540.392  7540.410  0.500  0.538569  143.075302  83.496318  22.689904
  7545.034  7545.060  0.500  0.536227  142.932818  83.608736  22.778326
  7549.698  7549.720  0.500  0.534015  142.786348  83.708016  22.859807
  7554.381  7554.400  0.500  0.531723  142.632479  83.809677  22.940989
  7559.081  7559.100  0.500  0.529550  142.469624  83.896088  23.020518
  7563.850  7563.820  0.500  0.527329  142.278702  83.969907  23.091861
  7568.581  7568.560  0.500  0.525208  142.161714  84.079063  23.174251
  7573.338  7573.310  0.500  0.523261  141.990274  84.141292  23.240470
  7578.084  7578.090  0.500  0.521129  141.826150  84.223402  23.312840
  7582.878  7582.890  0.500  0.518912  141.634232  84.296122  23.383534
  7587.732  7587.700  0.500  0.516825  141.428560  84.349606  23.447859
  7592.553  7592.530  0.500  0.514973  141.195122  84.366424  23.499341
