# XDI/1.0 BlueSky/1.10.0 BMM/2023-1.0-py310-tiled
# Beamline.name: BMM (06BM) -- Beamline for Materials Measurement (NIST)
# Beamline.xray_source: NSLS-II three-pole wiggler
# Beamline.collimation: paraboloid mirror, 5 nm Rh on 30 nm Pt
# Beamline.focusing: not in use
# Beamline.harmonic_rejection: flat mirror, Si stripe, pitch = 7.0 mrad relative to beam
# Beamline.software: Bluesky 1.10.0, Ophyd 1.7.0, DataBroker 2.0.0b13, Python 3.10.8, 2023-1.0-py310-tiled
# Detector.I0: 10 cm N2
# Detector.I1: 25 cm N2
# Detector.I2: 25 cm N2
# Element.symbol: Eu
# Element.edge: L3
# Element.reference: Eu
# Element.reference_material: Eu2O3
# Facility.name: NSLS-II
# Facility.energy: 3.0
# Facility.current: 400.1
# Facility.mode: top-off
# Facility.GUP: 301027
# Facility.SAF: 310583
# Facility.cycle: 2023-2
# Mono.name: Si(111)
# Mono.d_spacing: 3.1351860
# Mono.encoder_resolution: 0.0000050 deg/ct
# Mono.angle_offset: 16.0754326 deg
# Mono.scan_mode: pseudo channel cut
# Mono.scan_type: step
# Mono.direction: forward in energy
# Sample.name: Eu2O3
# Sample.prep: PEG pellet
# Sample.x: 109.138 mm
# Sample.y: 153.150 mm
# Sample.SDD_position: 205.000 mm
# Scan.experimenters: Bruce Ravel
# Scan.edge_energy: 6976.9
# Scan.start_time: 2023-05-28T13:07:35
# Scan.end_time: 2023-05-28T13:14:58
# Scan.transient_id: 78707
# Scan.uid: a7f3b61d-40ed-4e18-b3bd-ca526332a12d
# Scan.plot_hint: ln(It/Ir)  --  ln($6/$7)
# Column.1: energy eV
# Column.2: requested_energy eV
# Column.3: measurement_time seconds
# Column.4: xmu 
# Column.5: I0 nA
# Column.6: It nA
# Column.7: Ir nA
# ///////////
# sample courtesy Martin Stennett, University of Sheffield
# -----------
# energy  requested_energy  measurement_time  xmu  I0  It  Ir
  6776.912  6776.900  0.500  1.737802  153.402790  135.839402  23.895060
  6786.913  6786.900  0.500  1.730258  153.551524  136.435432  24.181629
  6796.917  6796.900  0.500  1.722716  152.299030  135.772751  24.246368
  6806.899  6806.900  0.500  1.715214  153.380886  137.198103  24.685405
  6816.974  6816.900  0.500  1.707714  153.430084  137.707532  24.963583
  6826.901  6826.900  0.500  1.700265  153.342132  138.097872  25.221532
  6836.904  6836.900  0.500  1.693047  153.661026  138.872627  25.546763
  6846.914  6846.900  0.500  1.685773  153.240240  138.967196  25.750777
  6856.920  6856.900  0.500  1.678525  153.525075  139.701759  26.075210
  6866.916  6866.900  0.500  1.671240  153.707444  140.334415  26.384803
  6876.914  6876.900  0.500  1.664013  153.904192  141.037944  26.709417
  6886.912  6886.900  0.500  1.656876  154.020926  141.623536  27.012404
  6896.911  6896.900  0.500  1.649900  154.099983  142.175372  27.307500
  6906.916  6906.900  0.500  1.643025  154.127725  142.659881  27.589594
  6916.909  6916.900  0.500  1.636218  154.045638  143.002568  27.844751
  6926.911  6926.900  0.500  1.629643  154.000427  143.400652  28.106453
  6936.914  6936.900  0.500  1.623584  154.020180  143.905220  28.376761
  6946.883  6946.900  0.500  1.617618  154.131039  144.494309  28.663423
  6948.878  6948.900  0.500  1.616672  154.114080  144.591201  28.709790
  6950.889  6950.900  0.500  1.615947  154.110919  144.680574  28.748369
  6952.881  6952.900  0.500  1.615300  154.108325  144.768981  28.784549
  6954.886  6954.900  0.500  1.614966  154.131683  144.881053  28.816474
  6957.351  6956.900  0.500  1.614719  154.114357  144.976613  28.842594
  6958.882  6958.900  0.500  1.614810  154.102005  145.030417  28.850692
  6961.124  6960.900  0.500  1.615433  154.096269  145.080268  28.842620
  6962.995  6962.900  0.500  1.616629  154.100959  145.180132  28.827961
  6964.901  6964.900  0.500  1.618811  154.077852  145.315866  28.792032
  6966.897  6966.900  0.500  1.622660  154.091104  145.423902  28.702742
  6967.185  6967.200  0.500  1.623422  154.095561  145.436906  28.683454
  6967.485  6967.500  0.500  1.624411  154.093861  145.425543  28.652857
  6967.783  6967.800  0.500  1.625306  154.070902  145.386992  28.619638
  6968.083  6968.100  0.500  1.626408  154.073440  145.412244  28.593081
  6968.383  6968.400  0.500  1.627624  154.075990  145.446698  28.565104
  6968.681  6968.700  0.500  1.628989  154.078210  145.442701  28.525361
  6968.985  6969.000  0.500  1.630425  154.048197  145.419610  28.479904
  6969.279  6969.300  0.500  1.632031  154.053279  145.492459  28.448431
  6969.583  6969.600  0.500  1.633815  154.041097  145.492623  28.397751
  6969.887  6969.900  0.500  1.635646  154.043596  145.515779  28.350328
  6970.187  6970.200  0.500  1.637435  154.043133  145.558419  28.307935
  6970.486  6970.500  0.500  1.639153  154.041296  145.560381  28.259725
  6970.786  6970.800  0.500  1.640844  154.037962  145.527159  28.205561
  6971.090  6971.100  0.500  1.642551  154.030394  145.492838  28.150794
  6971.390  6971.400  0.500  1.644425  154.025206  145.522813  28.103875
  6971.693  6971.700  0.500  1.646697  154.013912  145.512819  28.038180
  6971.995  6972.000  0.500  1.649053  154.017014  145.511869  27.972015
  6972.292  6972.300  0.500  1.651793  154.019964  145.513373  27.895760
  6972.590  6972.600  0.500  1.654903  154.020420  145.561962  27.818421
  6972.888  6972.900  0.500  1.658546  154.005817  145.593598  27.723289
  6973.189  6973.200  0.500  1.662783  154.000343  145.634484  27.613846
  6973.489  6973.500  0.500  1.667726  154.009755  145.623908  27.475674
  6973.792  6973.800  0.500  1.673232  153.991945  145.587485  27.317972
  6974.084  6974.100  0.500  1.679106  153.982756  145.598359  27.160027
  6974.387  6974.400  0.500  1.685393  153.992001  145.632301  26.996084
  6974.693  6974.700  0.500  1.692284  153.984383  145.639680  26.812063
  6974.998  6975.000  0.500  1.699464  153.991693  145.637990  26.619923
  6975.297  6975.300  0.500  1.707464  154.045906  145.696772  26.418473
  6975.597  6975.600  0.500  1.716122  154.443626  146.074851  26.258704
  6975.894  6975.900  0.500  1.725709  154.455755  146.161141  26.023518
  6976.197  6976.200  0.500  1.736679  154.475125  146.199566  25.746374
  6976.497  6976.500  0.500  1.748441  154.473604  146.200443  25.445459
  6976.800  6976.800  0.500  1.762218  154.486004  146.217002  25.100162
  6977.095  6977.100  0.500  1.777756  154.487136  146.218434  24.713397
  6977.394  6977.400  0.500  1.795992  154.494267  146.238049  24.270059
  6977.692  6977.700  0.500  1.817070  154.468015  146.244626  23.764916
  6977.993  6978.000  0.500  1.840995  154.465920  146.272635  23.207549
  6978.298  6978.300  0.500  1.868897  154.477982  146.288269  22.571377
  6978.595  6978.600  0.500  1.899094  154.466175  146.271145  21.897410
  6978.894  6978.900  0.500  1.933993  154.448655  146.243206  21.142350
  6979.201  6979.200  0.500  1.974186  154.458855  146.236806  20.308528
  6979.496  6979.500  0.500  2.017838  154.448375  146.273119  19.445934
  6979.801  6979.800  0.500  2.066268  154.459311  146.312839  18.531638
  6980.100  6980.100  0.500  2.115120  154.461772  146.316925  17.648581
  6980.401  6980.400  0.500  2.163190  154.441523  146.296154  16.817895
  6980.694  6980.700  0.500  2.208579  154.451236  146.326671  16.074952
  6980.995  6981.000  0.500  2.252806  154.446228  146.363703  15.383400
  6981.297  6981.300  0.500  2.293694  154.427355  146.318403  14.762508
  6981.596  6981.600  0.500  2.331358  154.438503  146.361925  14.221070
  6981.897  6981.900  0.500  2.363989  154.423116  146.397871  13.767895
  6982.194  6982.200  0.500  2.391212  154.414338  146.421115  13.400273
  6982.491  6982.500  0.500  2.412414  154.416177  146.402448  13.117469
  6982.797  6982.800  0.500  2.427531  154.415233  146.373892  12.918150
  6983.098  6983.100  0.500  2.435286  154.406571  146.382938  12.819146
  6983.399  6983.400  0.500  2.435332  154.407798  146.449991  12.824428
  6983.703  6983.700  0.500  2.427389  154.391351  146.446714  12.926408
  6983.996  6984.000  0.500  2.411958  154.393739  146.485912  13.130946
  6984.297  6984.300  0.500  2.389966  154.391474  146.460795  13.420614
  6984.599  6984.600  0.500  2.362984  154.400039  146.491247  13.790525
  6984.902  6984.900  0.500  2.332605  154.373206  146.481628  14.214968
  6985.196  6985.200  0.500  2.299957  154.386359  146.549685  14.693528
  6985.499  6985.500  0.500  2.264809  154.381820  146.552294  15.219438
  6985.795  6985.800  0.500  2.229404  154.379394  146.558568  15.768611
  6986.092  6986.100  0.500  2.194378  154.377771  146.561611  16.331040
  6986.400  6986.400  0.500  2.160392  154.381081  146.520125  16.890834
  6986.700  6986.700  0.500  2.129545  154.375564  146.539474  17.422287
  6986.999  6987.000  0.500  2.100683  154.357102  146.555674  17.934428
  6987.301  6987.300  0.500  2.073849  154.354321  146.597301  18.427439
  6987.599  6987.600  0.500  2.049512  154.363819  146.623009  18.884720
  6987.900  6987.900  0.500  2.026981  154.354428  146.604468  19.312595
  6988.204  6988.200  0.500  2.006859  154.350567  146.620302  19.707267
  6988.504  6988.500  0.500  1.989282  154.344068  146.641315  20.059593
  6988.802  6988.800  0.500  1.974041  154.338227  146.631226  20.366262
  6989.095  6989.100  0.500  1.960975  154.346630  146.630553  20.634012
  6989.395  6989.400  0.500  1.948959  154.345950  146.643885  20.885363
  6989.693  6989.700  0.500  1.938366  154.326666  146.647941  21.108356
  6990.001  6990.000  0.500  1.928831  154.330790  146.689008  21.316559
  6990.297  6990.300  0.500  1.920974  154.325715  146.672408  21.482262
  6990.597  6990.600  0.500  1.913974  154.335857  146.686734  21.635278
  6990.899  6990.900  0.500  1.908004  154.330363  146.726565  21.770742
  6991.201  6991.200  0.500  1.902418  154.335532  146.748992  21.896045
  6991.505  6991.500  0.500  1.898009  154.328588  146.748362  21.992685
  6991.807  6991.800  0.500  1.893784  154.318310  146.759656  22.087517
  6992.099  6992.100  0.500  1.890096  154.329453  146.789181  22.173574
  6992.405  6992.400  0.500  1.886847  154.318425  146.789706  22.245820
  6992.697  6992.700  0.500  1.883961  154.307848  146.789064  22.310008
  6992.999  6993.000  0.500  1.881367  154.311059  146.819012  22.372535
  6993.302  6993.300  0.500  1.878991  154.300778  146.815735  22.425244
  6993.600  6993.600  0.500  1.876837  154.296360  146.805432  22.472030
  6993.898  6993.900  0.500  1.874802  154.301053  146.809950  22.518487
  6994.192  6994.200  0.500  1.873000  154.292815  146.803750  22.558156
  6994.499  6994.500  0.500  1.871352  154.265029  146.777981  22.591385
  6994.803  6994.800  0.500  1.869973  154.274621  146.816355  22.628486
  6995.108  6995.100  0.500  1.868894  154.282018  146.859275  22.659542
  6995.400  6995.400  0.500  1.867964  154.272744  146.865250  22.681546
  6995.698  6995.700  0.500  1.867302  154.272167  146.835612  22.691978
  6996.003  6996.000  0.500  1.866495  154.248448  146.834904  22.710188
  6996.301  6996.300  0.500  1.866074  154.231180  146.829127  22.718863
  6996.603  6996.600  0.500  1.865888  154.242284  146.857076  22.727408
  6996.902  6996.900  0.500  1.865651  154.233158  146.896682  22.738932
  6997.200  6997.200  0.500  1.865421  154.235481  146.914605  22.746943
  6997.495  6997.500  0.500  1.865173  154.237970  146.925562  22.754271
  6997.791  6997.800  0.500  1.865141  154.216563  146.970478  22.761972
  6998.098  6998.100  0.500  1.864968  154.208307  146.922961  22.758539
  6998.401  6998.400  0.500  1.864770  154.218007  146.964909  22.769537
  6998.697  6998.700  0.500  1.864523  154.216522  146.911445  22.766874
  6998.998  6999.000  0.500  1.864221  154.208000  146.945278  22.779006
  6999.301  6999.300  0.500  1.863945  154.215769  146.961374  22.787800
  6999.602  6999.600  0.500  1.863577  154.198988  146.957632  22.795591
  6999.904  6999.900  0.500  1.863125  154.203669  147.007637  22.813657
  7000.203  7000.200  0.500  1.862588  154.186009  147.004981  22.825512
  7000.502  7000.500  0.500  1.861958  154.182795  147.011146  22.840852
  7000.803  7000.800  0.500  1.861380  154.174849  147.004450  22.853010
  7001.102  7001.100  0.500  1.860813  154.180685  147.040211  22.871534
  7001.400  7001.400  0.500  1.860298  154.185170  147.069883  22.887927
  7001.701  7001.700  0.500  1.859740  154.176239  147.081964  22.902600
  7001.896  7001.900  0.500  1.859367  154.178548  147.098930  22.913774
  7002.897  7002.890  0.500  1.857747  154.167054  147.070277  22.946457
  7003.904  7003.890  0.500  1.856802  154.161650  147.122360  22.976276
  7004.922  7004.910  0.500  1.857287  154.170874  147.224566  22.981103
  7005.967  7005.960  0.500  1.859516  154.155330  147.190153  22.924568
  7007.034  7007.020  0.500  1.864206  154.145532  147.216231  22.821339
  7008.113  7008.100  0.500  1.870496  154.125337  147.273511  22.687073
  7009.209  7009.200  0.500  1.878514  154.117586  147.356999  22.518666
  7010.328  7010.320  0.500  1.887102  154.108734  147.397390  22.332214
  7011.471  7011.460  0.500  1.896143  154.109962  147.459905  22.140611
  7012.607  7012.610  0.500  1.904609  154.098671  147.492689  21.958833
  7013.801  7013.790  0.500  1.912604  154.106202  147.576411  21.796345
  7014.988  7014.980  0.500  1.919149  154.102575  147.608321  21.658833
  7016.203  7016.200  0.500  1.924107  154.076891  147.649403  21.557705
  7017.440  7017.430  0.500  1.926789  154.086855  147.712903  21.509212
  7018.691  7018.680  0.500  1.926609  154.081125  147.743007  21.517464
  7019.960  7019.950  0.500  1.923971  154.061868  147.789482  21.581105
  7021.252  7021.240  0.500  1.919104  154.081956  147.882266  21.699998
  7022.563  7022.550  0.500  1.912864  154.079584  147.849593  21.831007
  7023.887  7023.880  0.500  1.905548  154.060796  147.875080  21.995095
  7025.242  7025.230  0.500  1.897989  154.055490  147.946814  22.172741
  7026.605  7026.600  0.500  1.890547  154.061471  148.038546  22.352214
  7027.991  7027.980  0.500  1.883599  154.045140  148.112926  22.519368
  7029.397  7029.390  0.500  1.877534  154.046423  148.161411  22.663779
  7030.816  7030.810  0.500  1.872306  154.041527  148.221697  22.791847
  7032.265  7032.250  0.500  1.867905  154.019447  148.308820  22.905839
  7033.713  7033.710  0.500  1.864240  154.016168  148.372368  22.999783
  7035.201  7035.190  0.500  1.861101  153.981549  148.421236  23.079706
  7036.698  7036.690  0.500  1.858583  153.969760  148.491304  23.148816
  7038.217  7038.210  0.500  1.856409  153.955988  148.493696  23.199565
  7039.762  7039.750  0.500  1.854894  153.955703  148.544657  23.242722
  7041.315  7041.310  0.500  1.853573  153.954635  148.625895  23.286154
  7042.895  7042.880  0.500  1.852744  153.927575  148.696485  23.316544
  7044.488  7044.480  0.500  1.852290  153.935229  148.776048  23.339617
  7046.105  7046.090  0.500  1.852289  153.915989  148.830074  23.348125
  7047.742  7047.730  0.500  1.852774  153.927794  148.918958  23.350733
  7049.385  7049.380  0.500  1.853544  153.906845  148.988669  23.343683
  7051.063  7051.050  0.500  1.854697  153.894933  149.068025  23.329194
  7052.747  7052.740  0.500  1.856126  153.899294  149.097216  23.300443
  7054.462  7054.450  0.500  1.857511  153.885167  149.141494  23.275107
  7056.192  7056.180  0.500  1.859044  153.880259  149.234963  23.254013
  7057.945  7057.930  0.500  1.860512  153.899441  149.308833  23.231394
  7059.699  7059.690  0.500  1.861381  153.899186  149.387234  23.223410
  7061.499  7061.480  0.500  1.861978  153.908325  149.496365  23.226502
  7063.293  7063.280  0.500  1.862190  152.546081  148.259508  23.029458
  7065.118  7065.110  0.500  1.861915  153.788417  149.532081  23.233523
  7066.969  7066.950  0.500  1.861100  153.808314  149.616348  23.265562
  7068.819  7068.810  0.500  1.859927  153.797924  149.725382  23.309839
  7070.708  7070.690  0.500  1.858459  152.932063  148.976817  23.227379
  7072.602  7072.590  0.500  1.856624  153.741708  149.850119  23.406447
  7074.523  7074.510  0.500  1.854672  153.742936  149.909390  23.461457
  7076.473  7076.450  0.500  1.852772  153.476958  149.727787  23.477613
  7078.398  7078.410  0.500  1.850877  153.721924  150.084047  23.578098
  7080.378  7080.380  0.500  1.849065  153.744896  150.188630  23.637320
  7082.371  7082.380  0.500  1.847246  153.693137  150.210267  23.683775
  7084.391  7084.390  0.500  1.845400  153.508134  150.110071  23.711698
  7086.425  7086.420  0.500  1.843530  153.638959  150.360911  23.795794
  7088.488  7088.480  0.500  1.841632  153.640923  150.470053  23.858294
  7090.563  7090.550  0.500  1.839541  153.635404  150.550737  23.921053
  7092.650  7092.640  0.500  1.837373  153.607845  150.623615  23.984573
  7094.761  7094.750  0.500  1.834893  153.597884  150.713943  24.058555
  7096.885  7096.880  0.500  1.832286  153.568505  150.777119  24.131468
  7099.029  7099.020  0.500  1.829580  153.571009  150.870694  24.211877
  7101.195  7101.190  0.500  1.826854  153.564630  150.964513  24.293070
  7103.391  7103.380  0.500  1.823945  153.533263  151.022685  24.373219
  7105.584  7105.580  0.500  1.821085  153.514708  151.075801  24.451614
  7107.807  7107.800  0.500  1.818606  153.487630  151.162903  24.526438
  7110.067  7110.050  0.500  1.816689  153.452598  151.245782  24.586996
  7112.316  7112.310  0.500  1.815663  153.288898  151.228250  24.609373
  7114.596  7114.590  0.500  1.815218  153.167820  151.188688  24.613873
  7116.904  7116.890  0.500  1.815553  153.554272  151.654009  24.681368
  7119.220  7119.210  0.500  1.815854  153.506413  151.702167  24.681767
  7121.558  7121.550  0.500  1.815915  153.438207  151.754260  24.688739
  7123.909  7123.900  0.500  1.816182  153.357481  151.758568  24.682868
  7126.286  7126.280  0.500  1.816532  153.222797  151.726817  24.669044
  7128.679  7128.670  0.500  1.816416  153.091886  151.688953  24.665770
  7131.098  7131.090  0.500  1.816211  152.907935  151.563063  24.650346
  7133.524  7133.520  0.500  1.815722  152.811093  151.569195  24.663406
  7135.981  7135.970  0.500  1.814512  152.820942  151.699617  24.714508
  7138.461  7138.450  0.500  1.812704  152.801970  151.802636  24.776042
  7140.949  7140.940  0.500  1.810421  152.798844  151.920647  24.851975
  7143.461  7143.450  0.500  1.807799  152.810077  152.013014  24.932363
  7145.980  7145.970  0.500  1.804701  152.820945  152.152936  25.032761
  7148.526  7148.520  0.500  1.801572  152.825812  152.267473  25.130114
  7151.100  7151.090  0.500  1.798791  152.812675  152.360296  25.215459
  7153.682  7153.670  0.500  1.796459  152.806587  152.475279  25.293406
  7156.290  7156.280  0.500  1.794342  152.780983  152.600228  25.367762
  7158.906  7158.900  0.500  1.792633  152.762937  152.698911  25.427601
  7161.568  7161.550  0.500  1.790991  152.711700  152.751691  25.478189
  7164.221  7164.210  0.500  1.789631  152.659241  152.774339  25.516644
  7166.896  7166.890  0.500  1.788291  152.579611  152.790228  25.553514
  7169.601  7169.590  0.500  1.786858  152.518522  152.845168  25.599363
  7172.321  7172.310  0.500  1.785457  152.485083  152.954209  25.653542
  7175.065  7175.050  0.500  1.783807  152.426145  153.027150  25.708160
  7177.807  7177.800  0.500  1.782154  152.392513  153.130616  25.768093
  7180.593  7180.580  0.500  1.780276  152.358383  153.205674  25.829185
  7183.386  7183.370  0.500  1.778258  152.321177  153.308459  25.898720
  7186.205  7186.190  0.500  1.775959  152.266875  153.367559  25.968360
  7189.030  7189.020  0.500  1.773560  152.237824  153.445643  26.043974
  7191.885  7191.870  0.500  1.771117  150.789427  152.121829  25.882444
  7194.768  7194.750  0.500  1.768554  151.985658  153.430774  26.172148
  7197.655  7197.640  0.500  1.766256  151.987974  153.528349  26.249045
  7200.565  7200.550  0.500  1.764116  151.932121  153.592300  26.316222
  7203.482  7203.470  0.500  1.762198  151.872018  153.641236  26.375139
  7206.434  7206.420  0.500  1.760532  151.795886  153.691489  26.427780
  7209.408  7209.390  0.500  1.759073  151.734071  153.809526  26.486675
  7212.385  7212.370  0.500  1.757864  151.651320  153.827257  26.521768
  7215.396  7215.380  0.500  1.756604  151.593235  153.932871  26.573452
  7218.409  7218.400  0.500  1.755409  151.519403  153.955678  26.609161
  7221.458  7221.450  0.500  1.753998  151.452074  153.994613  26.653481
  7224.521  7224.510  0.500  1.752637  151.367336  154.062695  26.701583
  7227.606  7227.590  0.500  1.750870  150.484426  153.308423  26.617833
  7230.703  7230.690  0.500  1.748908  151.382854  154.342100  26.849930
  7233.823  7233.810  0.500  1.746893  151.296816  154.390725  26.912561
  7236.964  7236.950  0.500  1.744608  151.235930  154.479125  26.989596
  7240.111  7240.100  0.500  1.742272  151.182613  154.510257  27.058157
  7243.293  7243.280  0.500  1.739757  151.106420  154.589283  27.140159
  7246.478  7246.470  0.500  1.737434  150.759327  154.377047  27.165938
  7249.699  7249.690  0.500  1.735104  150.929314  154.681010  27.282931
  7252.934  7252.920  0.500  1.732526  150.761988  154.666988  27.350865
  7256.188  7256.170  0.500  1.730115  151.012914  155.061674  27.486850
  7259.465  7259.450  0.500  1.727692  150.774076  154.940002  27.531912
  7262.754  7262.740  0.500  1.725533  149.618639  153.908430  27.407724
  7266.066  7266.050  0.500  1.723497  149.098324  153.480204  27.387176
  7269.382  7269.370  0.500  1.721358  151.137574  155.681360  27.839439
  7272.732  7272.720  0.500  1.719589  150.985501  155.635286  27.880455
  7276.103  7276.090  0.500  1.717700  151.175434  155.957226  27.990951
  7279.480  7279.470  0.500  1.715793  151.064109  155.985658  28.049500
  7282.887  7282.880  0.500  1.713814  150.986466  156.044019  28.115581
  7286.304  7286.300  0.500  1.711767  150.657051  155.865482  28.140974
  7289.761  7289.750  0.500  1.709460  150.800693  156.211548  28.268591
  7293.218  7293.210  0.500  1.706952  150.759855  156.295753  28.354836
  7296.700  7296.690  0.500  1.704560  150.686809  156.346106  28.431913
  7300.198  7300.190  0.500  1.701969  150.479393  156.281215  28.493851
  7303.716  7303.710  0.500  1.699509  150.710729  156.683899  28.637613
  7307.261  7307.250  0.500  1.697120  150.619990  156.761705  28.720372
  7310.813  7310.800  0.500  1.694877  150.545615  156.837570  28.798785
  7314.394  7314.380  0.500  1.692566  150.461722  156.848500  28.867428
  7317.992  7317.980  0.500  1.690435  150.404784  156.907075  28.939824
  7321.600  7321.590  0.500  1.688211  150.334464  157.010831  29.023436
  7325.227  7325.220  0.500  1.686025  150.244429  157.082338  29.100194
  7328.888  7328.880  0.500  1.683974  150.180043  157.158185  29.174041
  7332.558  7332.550  0.500  1.681824  150.095300  157.255372  29.254891
  7336.244  7336.240  0.500  1.679752  150.041233  157.374674  29.337833
  7339.956  7339.950  0.500  1.677646  148.128802  155.507032  29.050755
  7343.683  7343.680  0.500  1.675510  149.797170  157.347900  29.457516
  7347.424  7347.420  0.500  1.673287  149.765685  157.483910  29.548597
  7351.199  7351.190  0.500  1.670978  149.711232  157.578741  29.634733
  7354.993  7354.980  0.500  1.668423  149.631383  157.651070  29.724182
  7358.789  7358.780  0.500  1.666091  149.569249  157.718540  29.806325
  7362.624  7362.610  0.500  1.663587  149.493248  157.798732  29.896252
  7366.457  7366.450  0.500  1.661030  149.407395  157.847123  29.982007
  7370.321  7370.310  0.500  1.658426  149.335018  157.939533  30.077771
  7374.205  7374.190  0.500  1.655801  149.253601  158.019308  30.172046
  7378.106  7378.090  0.500  1.653096  149.167537  158.075317  30.264519
  7382.026  7382.010  0.500  1.650524  149.081794  158.136297  30.354146
  7385.958  7385.950  0.500  1.647937  148.989068  158.197409  30.444550
  7389.930  7389.910  0.500  1.645376  148.911563  158.262039  30.535087
  7393.894  7393.880  0.500  1.642862  148.844923  158.350668  30.629071
  7397.900  7397.880  0.500  1.640294  148.749357  158.429795  30.723195
  7401.903  7401.890  0.500  1.637796  148.652698  158.477858  30.809366
  7405.950  7405.930  0.500  1.635425  148.550891  158.513795  30.889518
  7409.998  7409.980  0.500  1.633089  148.470746  158.588914  30.976426
  7414.068  7414.050  0.500  1.630703  148.369281  158.654492  31.063254
  7418.155  7418.140  0.500  1.628415  148.257481  158.696071  31.142574
  7422.266  7422.250  0.500  1.626092  148.138559  158.740736  31.223794
  7426.400  7426.380  0.500  1.623569  148.033289  158.755902  31.305671
  7430.546  7430.530  0.500  1.621124  147.923536  158.829817  31.396898
  7434.708  7434.690  0.500  1.618479  147.817822  158.797981  31.473746
  7438.894  7438.880  0.500  1.615778  147.684450  158.817481  31.562760
  7443.101  7443.080  0.500  1.613168  147.517532  158.800099  31.641788
  7447.328  7447.310  0.500  1.610441  147.050037  158.465582  31.661333
  7451.578  7451.550  0.500  1.607861  147.310591  158.916875  31.833545
  7455.817  7455.810  0.500  1.605126  147.343877  159.126308  31.962790
  7460.108  7460.090  0.500  1.602553  143.366664  154.993592  31.212874
  7464.410  7464.390  0.500  1.599772  147.053215  159.168304  32.142845
  7468.728  7468.710  0.500  1.597049  145.759501  157.870763  31.967769
  7473.068  7473.050  0.500  1.594255  146.943141  159.344328  32.356410
  7477.432  7477.410  0.500  1.591585  146.806271  159.376724  32.449526
  7481.821  7481.790  0.500  1.588967  146.690300  159.402808  32.539900
  7486.205  7486.180  0.500  1.586330  146.550495  159.428343  32.631048
  7490.619  7490.600  0.500  1.583834  146.427377  159.483459  32.723902
  7495.069  7495.030  0.500  1.581362  146.311945  159.528978  32.814266
  7499.510  7499.480  0.500  1.578821  146.176980  159.500655  32.891905
  7503.962  7503.950  0.500  1.576325  146.039218  159.542757  32.982817
  7508.455  7508.440  0.500  1.573660  145.927896  159.591771  33.081007
  7512.970  7512.950  0.500  1.570924  145.785232  159.623547  33.178243
  7517.498  7517.480  0.500  1.568139  145.642745  159.641076  33.274419
  7522.049  7522.030  0.500  1.565258  145.496599  159.647108  33.371685
  7526.594  7526.600  0.500  1.562314  145.350617  159.639247  33.468420
  7531.192  7531.180  0.500  1.559341  145.233400  159.689265  33.578607
  7535.787  7535.790  0.500  1.556325  145.068211  159.693472  33.680913
  7540.431  7540.410  0.500  1.553379  144.912523  159.652181  33.771533
  7545.047  7545.060  0.500  1.550480  144.762823  159.667740  33.872903
  7549.741  7549.720  0.500  1.547482  144.618303  159.718805  33.985463
  7554.420  7554.400  0.500  1.544639  144.446295  159.678294  34.073572
  7559.134  7559.100  0.500  1.541864  144.302999  159.681074  34.168861
  7563.840  7563.820  0.500  1.539119  144.129186  159.678775  34.262267
  7568.574  7568.560  0.500  1.536456  143.983625  159.658090  34.349207
  7573.321  7573.310  0.500  1.533840  143.819401  159.651610  34.437789
  7578.086  7578.090  0.500  1.531192  143.651837  159.626516  34.523644
  7582.890  7582.890  0.500  1.528543  143.468780  159.590548  34.607433
  7587.705  7587.700  0.500  1.526107  143.258070  159.543257  34.681562
  7592.536  7592.530  0.500  1.523556  143.047409  159.490686  34.758673
