# XDI/1.0 BlueSky/1.10.0 BMM/2023-1.0-py310-tiled
# Beamline.name: BMM (06BM) -- Beamline for Materials Measurement (NIST)
# Beamline.xray_source: NSLS-II three-pole wiggler
# Beamline.collimation: paraboloid mirror, 5 nm Rh on 30 nm Pt
# Beamline.focusing: not in use
# Beamline.harmonic_rejection: flat mirror, Pt stripe, pitch = 7.0 mrad relative to beam
# Beamline.software: Bluesky 1.10.0, Ophyd 1.7.0, DataBroker 2.0.0b13, Python 3.10.8, 2023-1.0-py310-tiled
# Detector.I0: 10 cm N2
# Detector.I1: 25 cm N2
# Detector.I2: 25 cm N2
# Element.symbol: Sr
# Element.edge: K
# Element.reference: Sr
# Element.reference_material: SrTiO3
# Facility.name: NSLS-II
# Facility.energy: 3.0
# Facility.current: 399.4
# Facility.mode: top-off
# Facility.GUP: 301027
# Facility.SAF: 310583
# Facility.cycle: 2023-2
# Mono.name: Si(111)
# Mono.d_spacing: 3.1351860
# Mono.encoder_resolution: 0.0000050 deg/ct
# Mono.angle_offset: 16.0754326 deg
# Mono.scan_mode: pseudo channel cut
# Mono.scan_type: step
# Mono.direction: forward in energy
# Sample.name: SrCe2Ti4O12
# Sample.prep: Powder in PEG pellet
# Sample.x: 145.711 mm
# Sample.y: 114.376 mm
# Sample.SDD_position: 205.000 mm
# Scan.experimenters: Bruce Ravel
# Scan.edge_energy: 16104.6
# Scan.start_time: 2023-06-27T13:59:49
# Scan.end_time: 2023-06-27T14:06:28
# Scan.transient_id: 85139
# Scan.uid: ebefdba6-0575-4e3d-9217-dc587bf6cc1d
# Scan.plot_hint: ln(I0/It)  --  ln($5/$6)
# Column.1: energy eV
# Column.2: requested_energy eV
# Column.3: measurement_time seconds
# Column.4: xmu 
# Column.5: I0 nA
# Column.6: It nA
# Column.7: Ir nA
# ///////////
# sample courtesy Martin Stennett, University of Sheffield
# -----------
# energy  requested_energy  measurement_time  xmu  I0  It  Ir
  15904.571  15904.600  0.500  -0.301082  22.652232  30.610428  25.201266
  15914.602  15914.600  0.500  -0.301735  22.552570  30.495661  25.114105
  15924.602  15924.600  0.500  -0.302235  22.587610  30.558297  25.174108
  15934.603  15934.600  0.500  -0.302757  22.537080  30.505875  25.141661
  15944.617  15944.600  0.500  -0.303456  22.477725  30.446791  25.096975
  15954.699  15954.600  0.500  -0.304042  22.494269  30.487056  25.142683
  15964.616  15964.600  0.500  -0.304734  22.444118  30.440141  25.108847
  15974.634  15974.600  0.500  -0.305252  22.392644  30.386086  25.071870
  15984.621  15984.600  0.500  -0.305887  22.265516  30.232757  24.950752
  15994.631  15994.600  0.500  -0.306470  22.320364  30.324909  25.031945
  16004.643  16004.600  0.500  -0.307102  22.261246  30.263700  24.990646
  16014.633  16014.600  0.500  -0.307501  22.204571  30.198706  24.941675
  16024.603  16024.600  0.500  -0.308065  22.020011  29.964601  24.756230
  16034.641  16034.600  0.500  -0.308760  22.102611  30.097904  24.868307
  16044.624  16044.600  0.500  -0.309183  22.063186  30.056925  24.840995
  16054.608  16054.600  0.500  -0.309768  22.015933  30.010122  24.803528
  16064.662  16064.600  0.500  -0.310326  21.955290  29.944146  24.748887
  16074.626  16074.600  0.500  -0.310557  21.906139  29.884020  24.692096
  16076.562  16076.600  0.500  -0.310726  21.854818  29.819050  24.639545
  16078.554  16078.600  0.500  -0.310664  21.851318  29.812414  24.635255
  16080.570  16080.600  0.500  -0.310734  21.885344  29.860932  24.668526
  16082.575  16082.600  0.500  -0.310848  21.878836  29.855450  24.660095
  16084.581  16084.600  0.500  -0.310820  21.867265  29.838821  24.641792
  16086.564  16086.600  0.500  -0.310925  21.858729  29.830332  24.629983
  16088.559  16088.600  0.500  -0.310769  21.851697  29.816069  24.610639
  16090.543  16090.600  0.500  -0.310742  21.852373  29.816180  24.602738
  16092.539  16092.600  0.500  -0.310760  21.832450  29.789544  24.569994
  16094.558  16094.600  0.500  -0.310616  21.825052  29.775154  24.546421
  16094.831  16094.900  0.500  -0.310580  21.815311  29.760811  24.532893
  16095.137  16095.200  0.500  -0.310626  21.811333  29.756745  24.525217
  16095.432  16095.500  0.500  -0.310613  21.810648  29.755428  24.518623
  16095.727  16095.800  0.500  -0.310551  21.813845  29.757944  24.520262
  16096.034  16096.100  0.500  -0.310454  21.806452  29.744975  24.507727
  16096.351  16096.400  0.500  -0.310624  21.801003  29.742592  24.501273
  16096.646  16096.700  0.500  -0.310410  21.803570  29.739720  24.498844
  16096.941  16097.000  0.500  -0.310346  21.805150  29.739981  24.497107
  16097.248  16097.300  0.500  -0.310335  21.803321  29.737154  24.491404
  16097.554  16097.600  0.500  -0.310259  21.795908  29.724774  24.474582
  16097.861  16097.900  0.500  -0.310363  21.795638  29.727520  24.471632
  16098.179  16098.200  0.500  -0.310295  21.793510  29.722575  24.464979
  16098.474  16098.500  0.500  -0.310131  21.791466  29.714916  24.458038
  16098.769  16098.800  0.500  -0.310101  21.783934  29.703768  24.445525
  16099.064  16099.100  0.500  -0.309993  21.782959  29.699235  24.435143
  16099.382  16099.400  0.500  -0.310123  21.775927  29.693500  24.425620
  16099.677  16099.700  0.500  -0.310048  21.771968  29.685868  24.414211
  16099.995  16100.000  0.500  -0.309861  21.769306  29.676683  24.404816
  16100.290  16100.300  0.500  -0.309802  21.781346  29.691362  24.408826
  16100.563  16100.600  0.500  -0.309810  21.764938  29.669212  24.383783
  16100.858  16100.900  0.500  -0.309729  21.759377  29.659247  24.373820
  16101.176  16101.200  0.500  -0.309550  21.757461  29.651309  24.361619
  16101.494  16101.500  0.500  -0.309591  21.756514  29.651239  24.354296
  16101.812  16101.800  0.500  -0.309253  21.763173  29.650301  24.346849
  16102.084  16102.100  0.500  -0.309282  21.760996  29.648190  24.334166
  16102.379  16102.400  0.500  -0.309298  21.758796  29.645668  24.325492
  16102.686  16102.700  0.500  -0.309033  21.764944  29.646189  24.318134
  16102.981  16103.000  0.500  -0.308936  21.764013  29.642035  24.307579
  16103.288  16103.300  0.500  -0.308841  21.763922  29.639120  24.296112
  16103.583  16103.600  0.500  -0.308558  21.762044  29.628148  24.274806
  16103.879  16103.900  0.500  -0.308347  21.763412  29.623784  24.264192
  16104.174  16104.200  0.500  -0.308193  21.762897  29.618520  24.242153
  16104.469  16104.500  0.500  -0.307938  21.760773  29.608069  24.223085
  16104.799  16104.800  0.500  -0.307772  21.761207  29.603748  24.203836
  16105.106  16105.100  0.500  -0.307497  21.752588  29.583896  24.170712
  16105.390  16105.400  0.500  -0.307343  21.751317  29.577590  24.142696
  16105.674  16105.700  0.500  -0.306889  21.751525  29.564469  24.118685
  16105.980  16106.000  0.500  -0.306677  21.749147  29.554969  24.085780
  16106.276  16106.300  0.500  -0.306172  21.743481  29.532346  24.047161
  16106.594  16106.600  0.500  -0.305520  21.754928  29.528639  24.016945
  16106.878  16106.900  0.500  -0.305013  21.745139  29.500387  23.962053
  16107.162  16107.200  0.500  -0.304508  21.747769  29.489058  23.917031
  16107.492  16107.500  0.500  -0.303839  21.734737  29.451680  23.847567
  16107.776  16107.800  0.500  -0.303262  21.733183  29.432593  23.785779
  16108.083  16108.100  0.500  -0.302041  21.742609  29.409405  23.721845
  16108.389  16108.400  0.500  -0.301172  21.741307  29.382107  23.644519
  16108.685  16108.700  0.500  -0.300183  21.730738  29.338802  23.553971
  16108.958  16109.000  0.500  -0.299126  21.731811  29.309253  23.475813
  16109.276  16109.300  0.500  -0.297780  21.731822  29.269836  23.375914
  16109.560  16109.600  0.500  -0.296521  21.732680  29.234153  23.278119
  16109.901  16109.900  0.500  -0.295191  21.725877  29.186168  23.157923
  16110.174  16110.200  0.500  -0.293784  21.717706  29.134184  23.037293
  16110.458  16110.500  0.500  -0.292191  21.723940  29.096143  22.922977
  16110.765  16110.800  0.500  -0.290666  21.721793  29.048954  22.788886
  16111.061  16111.100  0.500  -0.288804  21.716557  28.987905  22.636747
  16111.379  16111.400  0.500  -0.286978  21.715993  28.934274  22.475225
  16111.686  16111.700  0.500  -0.284834  21.708719  28.862633  22.292150
  16111.993  16112.000  0.500  -0.282588  21.715502  28.806898  22.115729
  16112.289  16112.300  0.500  -0.280647  21.710445  28.744342  21.920820
  16112.607  16112.600  0.500  -0.278159  21.709465  28.671614  21.702138
  16112.891  16112.900  0.500  -0.275396  21.710401  28.593722  21.474561
  16113.198  16113.200  0.500  -0.272523  21.714669  28.517297  21.237851
  16113.494  16113.500  0.500  -0.269663  21.705427  28.423747  20.995899
  16113.778  16113.800  0.500  -0.266312  21.712541  28.337942  20.757853
  16114.074  16114.100  0.500  -0.262943  21.705252  28.233176  20.498681
  16114.404  16114.400  0.500  -0.259211  21.708297  28.131934  20.248123
  16114.711  16114.700  0.500  -0.255155  21.692888  27.998191  19.973559
  16115.007  16115.000  0.500  -0.251027  21.696276  27.887192  19.736723
  16115.291  16115.300  0.500  -0.246922  21.692721  27.768405  19.495307
  16115.598  16115.600  0.500  -0.242233  21.702096  27.650458  19.248598
  16115.905  16115.900  0.500  -0.237243  21.687542  27.494366  18.972058
  16116.201  16116.200  0.500  -0.232481  21.689563  27.366300  18.717934
  16116.508  16116.500  0.500  -0.227891  21.694000  27.246551  18.470154
  16116.793  16116.800  0.500  -0.222999  21.685618  27.103091  18.207861
  16117.089  16117.100  0.500  -0.218615  21.684796  26.983534  17.955787
  16117.407  16117.400  0.500  -0.214275  21.679041  26.859534  17.685687
  16117.737  16117.700  0.500  -0.210434  21.676936  26.753975  17.443904
  16118.022  16118.000  0.500  -0.207240  21.681585  26.674376  17.235611
  16118.295  16118.300  0.500  -0.204755  21.679294  26.605353  17.059266
  16118.602  16118.600  0.500  -0.203075  21.676650  26.557460  16.903407
  16118.909  16118.900  0.500  -0.202041  21.680192  26.534343  16.789234
  16119.217  16119.200  0.500  -0.201742  21.677079  26.522594  16.719363
  16119.501  16119.500  0.500  -0.202171  21.668284  26.523220  16.690168
  16119.797  16119.800  0.500  -0.203281  21.671370  26.556462  16.709930
  16120.104  16120.100  0.500  -0.204832  21.663455  26.587962  16.755814
  16120.400  16120.400  0.500  -0.207139  21.657380  26.641890  16.851529
  16120.708  16120.700  0.500  -0.209844  21.650365  26.705425  16.971969
  16121.015  16121.000  0.500  -0.212591  21.648978  26.777158  17.115065
  16121.288  16121.300  0.500  -0.215212  21.643386  26.840501  17.270281
  16121.595  16121.600  0.500  -0.218409  21.636597  26.918005  17.446923
  16121.903  16121.900  0.500  -0.221536  21.630343  26.994503  17.637397
  16122.199  16122.200  0.500  -0.224759  21.622306  27.071593  17.832404
  16122.495  16122.500  0.500  -0.227784  21.619213  27.149709  18.026442
  16122.791  16122.800  0.500  -0.230525  21.606321  27.208004  18.204010
  16123.087  16123.100  0.500  -0.233306  21.594223  27.268500  18.393459
  16123.394  16123.400  0.500  -0.236369  21.590440  27.347341  18.588840
  16123.702  16123.700  0.500  -0.238903  21.584428  27.409108  18.768826
  16123.987  16124.000  0.500  -0.241485  21.570322  27.461991  18.936796
  16124.271  16124.300  0.500  -0.243697  21.572031  27.525009  19.098038
  16124.556  16124.600  0.500  -0.245838  21.574076  27.586617  19.248208
  16124.875  16124.900  0.500  -0.247635  21.579359  27.643005  19.394453
  16125.182  16125.200  0.500  -0.249466  21.590098  27.707425  19.535761
  16125.490  16125.500  0.500  -0.251131  21.604184  27.771707  19.659277
  16125.775  16125.800  0.500  -0.252262  21.604441  27.803466  19.754693
  16126.059  16126.100  0.500  -0.253650  21.608342  27.847129  19.844839
  16126.378  16126.400  0.500  -0.254475  21.613288  27.876491  19.924212
  16126.686  16126.700  0.500  -0.255259  21.620507  27.907653  19.992091
  16126.993  16127.000  0.500  -0.256030  21.632814  27.945076  20.057648
  16127.290  16127.300  0.500  -0.256430  21.620449  27.940282  20.081214
  16127.563  16127.600  0.500  -0.256690  21.621727  27.949215  20.107108
  16127.871  16127.900  0.500  -0.256906  21.628611  27.964144  20.131401
  16128.190  16128.200  0.500  -0.256877  21.618692  27.950520  20.127625
  16128.486  16128.500  0.500  -0.256678  21.618192  27.944307  20.123972
  16128.782  16128.800  0.500  -0.256340  21.631612  27.952207  20.119672
  16129.101  16129.100  0.500  -0.255959  21.623117  27.930575  20.093505
  16129.386  16129.400  0.500  -0.255462  21.609439  27.899045  20.053866
  16129.603  16129.600  0.500  -0.255019  21.610072  27.887499  20.031022
  16130.605  16130.590  0.500  -0.253065  21.602808  27.823706  19.901766
  16131.597  16131.590  0.500  -0.250988  21.600921  27.763545  19.772584
  16132.657  16132.610  0.500  -0.249933  21.594741  27.726337  19.701566
  16133.683  16133.660  0.500  -0.249447  21.590231  27.707093  19.688599
  16134.755  16134.720  0.500  -0.249828  21.586307  27.712598  19.725361
  16135.838  16135.800  0.500  -0.250583  21.581497  27.727355  19.773679
  16136.945  16136.900  0.500  -0.251281  21.576142  27.739839  19.810612
  16138.028  16138.020  0.500  -0.252222  21.567616  27.754966  19.832313
  16139.192  16139.160  0.500  -0.252678  21.562595  27.761176  19.832555
  16140.310  16140.310  0.500  -0.252895  21.557123  27.760145  19.801303
  16141.508  16141.490  0.500  -0.252438  21.543283  27.729658  19.720720
  16142.684  16142.680  0.500  -0.251785  21.536242  27.702477  19.615379
  16143.894  16143.900  0.500  -0.251071  21.521778  27.664120  19.500246
  16145.127  16145.130  0.500  -0.250457  21.507663  27.629006  19.389564
  16146.383  16146.380  0.500  -0.249560  21.495222  27.588271  19.267359
  16147.673  16147.650  0.500  -0.248541  21.492876  27.557159  19.139906
  16148.964  16148.940  0.500  -0.246999  21.516039  27.544364  19.028560
  16150.289  16150.250  0.500  -0.245331  21.505466  27.484942  18.911408
  16151.615  16151.580  0.500  -0.244227  21.502002  27.450188  18.869814
  16152.963  16152.930  0.500  -0.243679  21.487737  27.416936  18.903910
  16154.335  16154.300  0.500  -0.243905  21.488545  27.424184  19.028798
  16155.695  16155.680  0.500  -0.245079  21.484371  27.451062  19.188703
  16157.090  16157.090  0.500  -0.246520  21.474601  27.478154  19.315425
  16158.531  16158.510  0.500  -0.248008  21.465132  27.506917  19.388446
  16159.961  16159.950  0.500  -0.248586  21.469290  27.528160  19.395210
  16161.413  16161.410  0.500  -0.248712  21.451347  27.508613  19.314844
  16162.912  16162.890  0.500  -0.247988  21.438119  27.471771  19.185831
  16164.412  16164.390  0.500  -0.246910  21.434916  27.438070  19.067636
  16165.945  16165.910  0.500  -0.245643  21.428055  27.394535  19.002488
  16167.479  16167.450  0.500  -0.245061  21.421601  27.370376  19.024783
  16169.037  16169.010  0.500  -0.245474  21.413764  27.371656  19.123049
  16170.606  16170.580  0.500  -0.246720  21.417079  27.410012  19.273520
  16172.152  16172.180  0.500  -0.248498  21.400110  27.437048  19.405415
  16173.779  16173.790  0.500  -0.250959  21.350613  27.441022  19.492418
  16175.418  16175.430  0.500  -0.253276  21.331609  27.480199  19.575920
  16177.091  16177.080  0.500  -0.254967  21.364278  27.568874  19.666824
  16178.777  16178.750  0.500  -0.256421  21.360154  27.603657  19.716077
  16180.474  16180.440  0.500  -0.257040  21.361045  27.621899  19.753503
  16182.183  16182.150  0.500  -0.257386  21.350889  27.618322  19.761455
  16183.915  16183.880  0.500  -0.257259  21.352446  27.616829  19.749635
  16185.647  16185.630  0.500  -0.256810  21.404673  27.671949  19.747617
  16187.392  16187.390  0.500  -0.255938  21.396323  27.637042  19.646722
  16189.194  16189.180  0.500  -0.255129  21.386256  27.601704  19.531998
  16190.985  16190.980  0.500  -0.253910  21.387161  27.569237  19.435968
  16192.800  16192.810  0.500  -0.252635  21.369888  27.511885  19.338012
  16194.649  16194.650  0.500  -0.251777  21.363415  27.479966  19.280799
  16196.545  16196.510  0.500  -0.250795  21.354378  27.441361  19.237171
  16198.418  16198.390  0.500  -0.250439  21.339031  27.411885  19.212348
  16200.303  16200.290  0.500  -0.250467  21.322140  27.390957  19.185624
  16202.235  16202.210  0.500  -0.250568  21.323736  27.395774  19.171361
  16204.156  16204.150  0.500  -0.251015  21.314230  27.395803  19.157032
  16206.100  16206.110  0.500  -0.251234  21.306867  27.392351  19.170407
  16208.090  16208.080  0.500  -0.251779  21.298710  27.396768  19.222020
  16210.081  16210.080  0.500  -0.252655  21.286134  27.404600  19.296844
  16212.107  16212.090  0.500  -0.253286  21.276827  27.409918  19.362781
  16214.157  16214.120  0.500  -0.253527  21.268237  27.405435  19.404793
  16216.207  16216.180  0.500  -0.253884  21.253464  27.396199  19.432461
  16218.269  16218.250  0.500  -0.254380  21.251202  27.406852  19.467935
  16220.355  16220.340  0.500  -0.255316  21.239009  27.416780  19.499552
  16222.418  16222.450  0.500  -0.256060  21.230278  27.425902  19.524573
  16224.597  16224.580  0.500  -0.256848  21.225521  27.441391  19.556287
  16226.708  16226.720  0.500  -0.257492  21.203266  27.430262  19.572215
  16228.923  16228.890  0.500  -0.258251  21.194615  27.439896  19.593236
  16231.081  16231.080  0.500  -0.258552  21.186509  27.437649  19.591744
  16233.320  16233.280  0.500  -0.258867  21.176681  27.433562  19.573328
  16235.513  16235.500  0.500  -0.258943  21.120795  27.363254  19.502422
  16237.777  16237.750  0.500  -0.258754  21.109320  27.343224  19.470164
  16240.006  16240.010  0.500  -0.258455  21.138739  27.373153  19.473056
  16242.306  16242.290  0.500  -0.258157  21.132792  27.357298  19.436393
  16244.606  16244.590  0.500  -0.257453  21.122454  27.324667  19.381065
  16246.930  16246.910  0.500  -0.256893  21.104724  27.286447  19.320143
  16249.277  16249.250  0.500  -0.256423  21.103166  27.271604  19.284192
  16251.602  16251.600  0.500  -0.256242  21.079004  27.235458  19.244509
  16253.952  16253.980  0.500  -0.256163  21.052760  27.199406  19.211659
  16256.371  16256.370  0.500  -0.256492  21.036767  27.187687  19.211472
  16258.791  16258.790  0.500  -0.257038  21.049537  27.219033  19.260749
  16261.258  16261.220  0.500  -0.257673  21.043490  27.228513  19.302900
  16263.714  16263.670  0.500  -0.258526  21.028595  27.232441  19.340833
  16266.171  16266.150  0.500  -0.258956  21.018877  27.231567  19.381803
  16268.651  16268.640  0.500  -0.259552  21.008793  27.234736  19.412820
  16271.144  16271.150  0.500  -0.259712  21.000668  27.228557  19.421895
  16273.685  16273.670  0.500  -0.260145  20.979894  27.213396  19.413834
  16276.249  16276.220  0.500  -0.260230  20.970729  27.203826  19.403024
  16278.826  16278.790  0.500  -0.260512  20.960970  27.198823  19.394747
  16281.415  16281.370  0.500  -0.260700  20.945515  27.183879  19.374503
  16283.982  16283.980  0.500  -0.260767  20.937413  27.175185  19.353796
  16286.596  16286.600  0.500  -0.261067  20.924845  27.167029  19.336145
  16289.258  16289.250  0.500  -0.261163  20.918459  27.161349  19.326492
  16291.920  16291.910  0.500  -0.261105  20.896025  27.130647  19.309343
  16294.618  16294.590  0.500  -0.260939  20.887776  27.115447  19.317846
  16297.317  16297.290  0.500  -0.261027  20.880000  27.107717  19.327304
  16300.005  16300.010  0.500  -0.260794  20.864961  27.081897  19.313428
  16302.764  16302.750  0.500  -0.260569  20.841938  27.045933  19.283604
  16305.524  16305.500  0.500  -0.260645  20.782401  26.970714  19.214744
  16308.320  16308.280  0.500  -0.260661  20.801260  26.995612  19.223326
  16311.082  16311.070  0.500  -0.260902  20.809446  27.012745  19.235819
  16313.891  16313.890  0.500  -0.261473  20.790524  27.003612  19.230209
  16316.713  16316.720  0.500  -0.261951  20.781045  27.004187  19.232027
  16319.595  16319.570  0.500  -0.262337  20.770695  27.001158  19.226758
  16322.477  16322.450  0.500  -0.262565  20.763132  26.997484  19.220990
  16325.384  16325.340  0.500  -0.263057  20.738443  26.978660  19.211294
  16328.280  16328.250  0.500  -0.263405  20.731791  26.979399  19.231644
  16331.154  16331.170  0.500  -0.263634  20.714652  26.963275  19.245978
  16334.111  16334.120  0.500  -0.264161  20.701036  26.959741  19.267540
  16337.115  16337.090  0.500  -0.264487  20.693698  26.958970  19.286354
  16340.121  16340.070  0.500  -0.264667  20.679058  26.944746  19.291266
  16343.092  16343.080  0.500  -0.265063  20.644563  26.910456  19.266627
  16346.100  16346.100  0.500  -0.265143  20.649309  26.918805  19.264350
  16349.144  16349.150  0.500  -0.264999  20.629544  26.889169  19.231730
  16352.236  16352.210  0.500  -0.264875  20.621688  26.875579  19.211278
  16355.306  16355.290  0.500  -0.264856  20.598538  26.844900  19.185900
  16358.412  16358.390  0.500  -0.264931  20.583944  26.827905  19.172912
  16361.543  16361.510  0.500  -0.264861  20.577846  26.818080  19.163451
  16364.687  16364.650  0.500  -0.265097  20.559159  26.800037  19.145242
  16367.820  16367.800  0.500  -0.265327  20.545105  26.787884  19.134689
  16371.001  16370.980  0.500  -0.265476  20.498377  26.730950  19.095101
  16374.172  16374.170  0.500  -0.265794  20.425368  26.644197  19.045780
  16377.391  16377.390  0.500  -0.266172  20.489352  26.737778  19.126574
  16380.612  16380.620  0.500  -0.266450  20.483842  26.738003  19.139659
  16383.892  16383.870  0.500  -0.266934  20.469427  26.732131  19.146914
  16387.198  16387.150  0.500  -0.267291  20.460404  26.729881  19.151311
  16390.457  16390.440  0.500  -0.267440  20.439246  26.706230  19.141472
  16393.754  16393.750  0.500  -0.267710  20.433355  26.705733  19.141732
  16397.086  16397.070  0.500  -0.268098  20.416368  26.693907  19.130069
  16400.444  16400.420  0.500  -0.268558  20.392516  26.674989  19.125638
  16403.839  16403.790  0.500  -0.268698  20.348996  26.621774  19.099049
  16407.176  16407.170  0.500  -0.269087  20.360119  26.646705  19.127202
  16410.585  16410.580  0.500  -0.269153  20.345274  26.629013  19.127895
  16414.008  16414.000  0.500  -0.269459  20.330290  26.617563  19.119887
  16417.479  16417.450  0.500  -0.269346  20.315430  26.595088  19.106280
  16420.916  16420.910  0.500  -0.269677  20.283988  26.562732  19.077118
  16424.437  16424.390  0.500  -0.269707  20.281701  26.560530  19.071839
  16427.913  16427.890  0.500  -0.269954  20.273413  26.556239  19.059781
  16431.425  16431.410  0.500  -0.269929  20.251679  26.527095  19.029086
  16434.987  16434.950  0.500  -0.270260  20.231786  26.509801  19.004669
  16438.550  16438.500  0.500  -0.270352  20.202076  26.473318  18.980922
  16442.102  16442.080  0.500  -0.270600  20.179168  26.449861  18.975687
  16445.656  16445.680  0.500  -0.270887  20.145224  26.412947  18.962827
  16449.331  16449.290  0.500  -0.270935  20.166886  26.442619  19.000762
  16452.959  16452.920  0.500  -0.271397  20.148696  26.430982  19.005437
  16456.637  16456.580  0.500  -0.271685  20.133608  26.418785  19.004692
  16460.280  16460.250  0.500  -0.271788  20.104801  26.383695  18.983326
  16463.926  16463.940  0.500  -0.272084  20.106104  26.393232  18.996199
  16467.691  16467.650  0.500  -0.272423  20.093157  26.385174  18.994703
  16471.435  16471.380  0.500  -0.272801  20.070586  26.365512  18.984142
  16475.145  16475.120  0.500  -0.273268  20.054016  26.356032  18.978143
  16478.928  16478.890  0.500  -0.273404  20.040968  26.342470  18.970893
  16482.664  16482.680  0.500  -0.273714  20.016847  26.318928  18.957169
  16486.522  16486.480  0.500  -0.273742  20.002654  26.301000  18.947404
  16490.334  16490.310  0.500  -0.274178  19.984793  26.288971  18.937605
  16494.183  16494.150  0.500  -0.274286  19.968661  26.270579  18.932352
  16497.999  16498.010  0.500  -0.274537  19.952204  26.255522  18.926180
  16501.923  16501.890  0.500  -0.274815  19.933624  26.238364  18.913105
  16505.838  16505.790  0.500  -0.275051  19.904608  26.206357  18.889856
  16509.742  16509.710  0.500  -0.275126  19.897339  26.198771  18.886346
  16513.637  16513.650  0.500  -0.275450  19.878277  26.182153  18.874916
  16517.641  16517.610  0.500  -0.275726  19.863382  26.169736  18.871545
  16521.599  16521.580  0.500  -0.275957  19.847210  26.154468  18.863644
  16525.642  16525.580  0.500  -0.276209  19.820901  26.126381  18.851478
  16529.604  16529.590  0.500  -0.276470  19.807988  26.116185  18.847515
  16533.640  16533.630  0.500  -0.276697  19.781151  26.086725  18.832491
  16537.701  16537.680  0.500  -0.276964  19.772906  26.082813  18.835539
  16541.813  16541.750  0.500  -0.277176  19.763805  26.076331  18.839962
  16545.854  16545.840  0.500  -0.277488  19.721570  26.028730  18.810474
  16549.970  16549.950  0.500  -0.277762  19.705125  26.014152  18.806728
  16554.099  16554.080  0.500  -0.278093  19.694254  26.008416  18.810430
  16558.267  16558.230  0.500  -0.278362  19.680552  25.997307  18.805893
  16562.437  16562.390  0.500  -0.278684  19.654681  25.971499  18.789900
  16566.609  16566.580  0.500  -0.278886  19.646302  25.965667  18.786830
  16570.819  16570.780  0.500  -0.279282  19.631633  25.956553  18.783648
  16575.044  16575.010  0.500  -0.279634  19.604279  25.929511  18.763799
  16579.331  16579.250  0.500  -0.279902  19.585665  25.911851  18.754633
  16583.523  16583.510  0.500  -0.279939  19.567935  25.889348  18.744725
  16587.839  16587.790  0.500  -0.280406  19.549676  25.877275  18.737301
  16592.132  16592.090  0.500  -0.280465  19.520637  25.840353  18.713112
  16596.476  16596.410  0.500  -0.280685  19.514334  25.837680  18.718920
  16600.774  16600.750  0.500  -0.280961  19.490578  25.813372  18.706997
  16605.159  16605.110  0.500  -0.281227  19.467190  25.789242  18.692711
  16609.498  16609.490  0.500  -0.281592  19.448957  25.774496  18.688996
  16613.948  16613.880  0.500  -0.281878  19.428374  25.754576  18.681024
  16618.364  16618.300  0.500  -0.282106  19.398045  25.720245  18.662258
  16622.770  16622.730  0.500  -0.282400  19.391702  25.719392  18.663371
  16627.227  16627.180  0.500  -0.282802  19.368255  25.698610  18.649996
  16631.699  16631.650  0.500  -0.283103  19.353679  25.687012  18.645946
  16636.233  16636.140  0.500  -0.283222  19.333273  25.662971  18.633795
  16640.758  16640.650  0.500  -0.283724  19.309751  25.644641  18.624705
  16645.286  16645.180  0.500  -0.283875  19.294259  25.627918  18.618588
  16649.828  16649.730  0.500  -0.284267  19.264011  25.597776  18.603725
  16654.458  16654.300  0.500  -0.284474  19.251430  25.586358  18.598444
  16658.981  16658.880  0.500  -0.284910  19.220905  25.556934  18.583197
  16663.591  16663.490  0.500  -0.285083  19.202116  25.536369  18.572651
  16668.180  16668.110  0.500  -0.285407  19.174963  25.508511  18.559204
  16672.856  16672.760  0.500  -0.285655  19.155805  25.489353  18.546489
  16677.487  16677.420  0.500  -0.286046  19.135052  25.471699  18.535918
  16682.181  16682.100  0.500  -0.286263  19.109349  25.442989  18.517933
  16686.865  16686.800  0.500  -0.286420  19.082906  25.411777  18.501133
  16691.577  16691.520  0.500  -0.286696  19.057495  25.384944  18.490434
  16696.254  16696.260  0.500  -0.287151  19.027050  25.355940  18.469989
  16701.057  16701.010  0.500  -0.287305  18.998535  25.321840  18.449608
  16705.838  16705.790  0.500  -0.287690  18.946968  25.262830  18.412558
  16710.634  16710.590  0.500  -0.287925  18.839316  25.125186  18.317544
  16715.444  16715.400  0.500  -0.288127  17.727562  23.647269  17.245045
  16720.258  16720.230  0.500  -0.288848  18.113606  24.179644  17.633510
  16725.087  16725.090  0.500  -0.288897  18.986780  25.346477  18.490401
  16729.979  16729.960  0.500  -0.289286  18.962212  25.323533  18.479499
  16734.887  16734.850  0.500  -0.289474  18.929441  25.284531  18.458668
  16739.798  16739.760  0.500  -0.289746  18.906264  25.260447  18.447620
  16744.712  16744.690  0.500  -0.290105  18.877487  25.231037  18.428392
