# XDI/1.0 BlueSky/1.10.0 BMM/2023-1.0-py310-tiled
# Beamline.name: BMM (06BM) -- Beamline for Materials Measurement (NIST)
# Beamline.xray_source: NSLS-II three-pole wiggler
# Beamline.collimation: paraboloid mirror, 5 nm Rh on 30 nm Pt
# Beamline.focusing: not in use
# Beamline.harmonic_rejection: flat mirror, Pt stripe, pitch = 7.0 mrad relative to beam
# Beamline.software: Bluesky 1.10.0, Ophyd 1.7.0, DataBroker 2.0.0b13, Python 3.10.8, 2023-1.0-py310-tiled
# Detector.I0: 10 cm N2
# Detector.I1: 25 cm N2
# Detector.I2: 25 cm N2
# Element.symbol: Ni
# Element.edge: K
# Element.reference: Ni
# Element.reference_material: Ni foil
# Facility.name: NSLS-II
# Facility.energy: 3.0
# Facility.current: 399.8
# Facility.mode: top-off
# Facility.GUP: 301027
# Facility.SAF: 310583
# Facility.cycle: 2023-2
# Mono.name: Si(111)
# Mono.d_spacing: 3.1351860
# Mono.encoder_resolution: 0.0000050 deg/ct
# Mono.angle_offset: 16.0754326 deg
# Mono.scan_mode: pseudo channel cut
# Mono.scan_type: step
# Mono.direction: forward in energy
# Sample.name: NiBO3 + nH2O
# Sample.prep: powder on tape
# Sample.x: 117.785 mm
# Sample.y: 114.695 mm
# Sample.SDD_position: 205.000 mm
# Scan.experimenters: Bruce Ravel
# Scan.edge_energy: 8332.8
# Scan.start_time: 2023-06-23T15:42:00
# Scan.end_time: 2023-06-23T15:50:07
# Scan.transient_id: 84855
# Scan.uid: db81a6c5-816c-4e51-a8b5-16cc3e344a60
# Scan.plot_hint: ln(I0/It)  --  ln($5/$6)
# Column.1: energy eV
# Column.2: requested_energy eV
# Column.3: measurement_time seconds
# Column.4: xmu 
# Column.5: I0 nA
# Column.6: It nA
# Column.7: Ir nA
# ///////////
# BMM standards collection
# -----------
# energy  requested_energy  measurement_time  xmu  I0  It  Ir
  8132.804  8132.800  0.500  1.702598  134.025714  24.420750  9.380261
  8142.815  8142.800  0.500  1.694154  133.829749  24.591832  9.480914
  8152.823  8152.800  0.500  1.685604  133.627431  24.765512  9.579655
  8162.881  8162.800  0.500  1.677180  133.387853  24.930238  9.677578
  8172.860  8172.800  0.500  1.668683  133.150389  25.098205  9.775925
  8182.850  8182.800  0.500  1.660301  132.888221  25.259631  9.872414
  8192.870  8192.800  0.500  1.651861  132.733128  25.443990  9.978101
  8202.928  8202.800  0.500  1.643652  132.493452  25.607403  10.076831
  8212.918  8212.800  0.500  1.635065  132.251592  25.781094  10.178099
  8222.818  8222.800  0.500  1.627020  132.081729  25.955952  10.280861
  8232.821  8232.800  0.500  1.618778  131.840287  26.122917  10.382026
  8242.840  8242.800  0.500  1.610616  131.639604  26.296910  10.484474
  8252.808  8252.800  0.500  1.602439  131.353265  26.455170  10.580254
  8262.810  8262.800  0.500  1.594383  131.137728  26.625396  10.681918
  8272.805  8272.800  0.500  1.586520  130.924193  26.791873  10.780026
  8282.807  8282.800  0.500  1.578594  130.631407  26.944667  10.872969
  8292.805  8292.800  0.500  1.570942  130.442935  27.112466  10.968654
  8302.807  8302.800  0.500  1.563478  130.158334  27.256005  11.053097
  8304.799  8304.800  0.500  1.561726  130.151001  27.302258  11.073810
  8306.792  8306.800  0.500  1.560366  130.088081  27.326205  11.087152
  8308.789  8308.800  0.500  1.558878  130.041581  27.357092  11.101980
  8310.787  8310.800  0.500  1.557579  130.002757  27.384497  11.116083
  8312.789  8312.800  0.500  1.556017  129.963470  27.419017  11.129646
  8314.789  8314.800  0.500  1.554616  129.894428  27.442850  11.139251
  8316.793  8316.800  0.500  1.553331  129.845819  27.467852  11.146847
  8318.798  8318.800  0.500  1.551948  129.785466  27.493103  11.151111
  8320.795  8320.800  0.500  1.550669  129.738642  27.518353  11.152610
  8322.793  8322.800  0.500  1.549449  129.687554  27.541084  11.148197
  8323.072  8323.100  0.500  1.549366  129.686175  27.543079  11.144622
  8323.375  8323.400  0.500  1.549156  129.613899  27.533521  11.138766
  8323.675  8323.700  0.500  1.548833  129.592642  27.537881  11.135984
  8323.975  8324.000  0.500  1.548782  129.660333  27.553672  11.139429
  8324.278  8324.300  0.500  1.548689  129.655394  27.555185  11.135860
  8324.575  8324.600  0.500  1.548512  129.644090  27.557684  11.132980
  8324.881  8324.900  0.500  1.548347  129.645480  27.562527  11.130357
  8325.178  8325.200  0.500  1.548199  129.618035  27.560747  11.123149
  8325.481  8325.500  0.500  1.548186  129.621673  27.561894  11.119962
  8325.790  8325.800  0.500  1.547959  129.610101  27.565680  11.114747
  8326.082  8326.100  0.500  1.547882  129.537413  27.552340  11.104226
  8326.388  8326.400  0.500  1.547695  129.571015  27.564658  11.100936
  8326.688  8326.700  0.500  1.547543  129.515738  27.557090  11.089290
  8326.994  8327.000  0.500  1.547506  129.538500  27.562950  11.083203
  8327.282  8327.300  0.500  1.547371  129.571566  27.573688  11.077361
  8327.583  8327.600  0.500  1.547286  129.538181  27.568946  11.063530
  8327.892  8327.900  0.500  1.547203  129.490743  27.561131  11.049992
  8328.183  8328.200  0.500  1.547057  129.511102  27.569478  11.039744
  8328.481  8328.500  0.500  1.546919  129.534991  27.578385  11.027032
  8328.781  8328.800  0.500  1.546838  129.487399  27.570468  11.005514
  8329.075  8329.100  0.500  1.546773  129.477828  27.570222  10.984681
  8329.388  8329.400  0.500  1.546806  129.471579  27.567983  10.957956
  8329.688  8329.700  0.500  1.546792  129.461030  27.566129  10.925059
  8329.986  8330.000  0.500  1.546767  129.463728  27.567382  10.886946
  8330.295  8330.300  0.500  1.546726  129.441169  27.563727  10.832345
  8330.596  8330.600  0.500  1.546939  129.423271  27.554052  10.764716
  8330.896  8330.900  0.500  1.547061  129.443193  27.554913  10.677780
  8331.194  8331.200  0.500  1.547395  129.425208  27.541890  10.554177
  8331.500  8331.500  0.500  1.547750  129.384595  27.523478  10.382247
  8331.801  8331.800  0.500  1.548644  129.374437  27.496728  10.164015
  8332.095  8332.100  0.500  1.549790  129.909822  27.578880  9.944743
  8332.390  8332.400  0.500  1.551179  129.860172  27.530075  9.658076
  8332.694  8332.700  0.500  1.552420  129.844234  27.492563  9.361875
  8332.985  8333.000  0.500  1.553074  129.817573  27.468946  9.080529
  8333.292  8333.300  0.500  1.552937  129.783366  27.465462  8.822320
  8333.590  8333.600  0.500  1.551873  129.736994  27.484876  8.600838
  8333.894  8333.900  0.500  1.550770  129.753212  27.518656  8.406154
  8334.197  8334.200  0.500  1.549747  129.721852  27.540167  8.231442
  8334.501  8334.500  0.500  1.548953  129.683116  27.553815  8.078394
  8334.793  8334.800  0.500  1.548589  129.637883  27.554226  7.948203
  8335.097  8335.100  0.500  1.548451  129.641747  27.558848  7.834668
  8335.398  8335.400  0.500  1.548609  129.584230  27.542274  7.737963
  8335.699  8335.700  0.500  1.548862  129.581999  27.534843  7.661313
  8335.993  8336.000  0.500  1.549086  129.600813  27.532652  7.597233
  8336.294  8336.300  0.500  1.549669  129.572630  27.510622  7.538661
  8336.595  8336.600  0.500  1.550363  129.594465  27.496171  7.487491
  8336.896  8336.900  0.500  1.551284  129.526375  27.456425  7.433637
  8337.200  8337.200  0.500  1.552497  129.567805  27.431917  7.377901
  8337.501  8337.500  0.500  1.553960  129.558076  27.389748  7.310516
  8337.805  8337.800  0.500  1.555929  129.487071  27.320898  7.228085
  8338.103  8338.100  0.500  1.558365  129.565498  27.270923  7.139296
  8338.401  8338.400  0.500  1.561193  129.543228  27.189252  7.033601
  8338.700  8338.700  0.500  1.564399  129.521389  27.097642  6.922677
  8338.995  8339.000  0.500  1.568096  129.500862  26.993378  6.810393
  8339.296  8339.300  0.500  1.572389  129.510744  26.879789  6.699023
  8339.594  8339.600  0.500  1.577316  129.467650  26.738773  6.593441
  8339.898  8339.900  0.500  1.583233  129.459203  26.579310  6.488763
  8340.202  8340.200  0.500  1.589898  129.425328  26.395837  6.381971
  8340.504  8340.500  0.500  1.597711  129.441751  26.193738  6.272601
  8340.799  8340.800  0.500  1.606627  129.388995  25.950637  6.154874
  8341.100  8341.100  0.500  1.617151  129.370776  25.675358  6.024676
  8341.407  8341.400  0.500  1.629049  129.384664  25.374403  5.886676
  8341.703  8341.700  0.500  1.642352  129.372978  25.036816  5.734835
  8342.004  8342.000  0.500  1.656949  129.356797  24.670933  5.571907
  8342.291  8342.300  0.500  1.672393  129.377546  24.296736  5.403968
  8342.595  8342.600  0.500  1.688562  129.330652  23.898366  5.227440
  8342.896  8342.900  0.500  1.705189  129.330142  23.504201  5.047200
  8343.192  8343.200  0.500  1.721897  129.301232  23.109601  4.866893
  8343.496  8343.500  0.500  1.739022  129.272729  22.712214  4.683683
  8343.804  8343.800  0.500  1.756440  129.239036  22.314203  4.501038
  8344.099  8344.100  0.500  1.774298  129.248440  21.920854  4.320768
  8344.395  8344.400  0.500  1.793284  129.272203  21.512543  4.140077
  8344.702  8344.700  0.500  1.814026  129.238044  21.065352  3.954641
  8344.998  8345.000  0.500  1.836306  129.210118  20.596761  3.771658
  8345.300  8345.300  0.500  1.860656  129.215582  20.102139  3.589612
  8345.589  8345.600  0.500  1.885653  129.191405  19.602212  3.417780
  8345.894  8345.900  0.500  1.913089  129.181523  19.070243  3.243805
  8346.196  8346.200  0.500  1.940236  129.187734  18.560408  3.082277
  8346.497  8346.500  0.500  1.968571  129.169428  18.039327  2.924683
  8346.799  8346.800  0.500  1.995495  129.150470  17.557542  2.781962
  8347.101  8347.100  0.500  2.021359  129.151854  17.109437  2.651504
  8347.399  8347.400  0.500  2.043876  129.115896  16.723822  2.541128
  8347.701  8347.700  0.500  2.063568  129.084449  16.393724  2.448711
  8348.000  8348.000  0.500  2.079467  129.073655  16.133800  2.376648
  8348.302  8348.300  0.500  2.093165  129.089576  15.916262  2.318433
  8348.601  8348.600  0.500  2.104437  129.050179  15.733061  2.272954
  8348.896  8348.900  0.500  2.114017  129.027839  15.580368  2.238390
  8349.195  8349.200  0.500  2.122710  129.007963  15.443128  2.209691
  8349.500  8349.500  0.500  2.131010  128.927672  15.305952  2.186661
  8349.796  8349.800  0.500  2.138766  128.974374  15.193194  2.169162
  8350.098  8350.100  0.500  2.145956  128.941226  15.080475  2.154516
  8350.400  8350.400  0.500  2.152195  128.889558  14.980674  2.144317
  8350.699  8350.700  0.500  2.156647  128.861423  14.910878  2.140825
  8351.007  8351.000  0.500  2.158288  128.849307  14.885024  2.144866
  8351.303  8351.300  0.500  2.156329  128.828468  14.911796  2.157777
  8351.605  8351.600  0.500  2.150072  128.771891  14.998808  2.179825
  8351.898  8351.900  0.500  2.139648  128.764784  15.155130  2.212015
  8352.197  8352.200  0.500  2.125103  128.750511  15.375476  2.253529
  8352.497  8352.500  0.500  2.106803  128.714243  15.655019  2.302964
  8352.787  8352.800  0.500  2.086514  128.670265  15.970430  2.357321
  8353.098  8353.100  0.500  2.063776  128.669878  16.337672  2.417733
  8353.403  8353.400  0.500  2.041482  128.644999  16.702774  2.474212
  8353.699  8353.700  0.500  2.020153  128.602572  17.057225  2.527071
  8353.999  8354.000  0.500  2.001430  128.648027  17.385746  2.571766
  8354.301  8354.300  0.500  1.984278  128.609594  17.681231  2.607203
  8354.594  8354.600  0.500  1.969891  128.609960  17.937501  2.632797
  8354.899  8354.900  0.500  1.957291  128.616496  18.165858  2.649979
  8355.193  8355.200  0.500  1.946830  128.594724  18.353783  2.658760
  8355.498  8355.500  0.500  1.937313  128.596200  18.529498  2.661679
  8355.795  8355.800  0.500  1.928778  128.576585  18.685488  2.660059
  8356.088  8356.100  0.500  1.921084  128.587913  18.831460  2.657940
  8356.390  8356.400  0.500  1.913665  128.572745  18.969460  2.654041
  8356.684  8356.700  0.500  1.906230  128.575686  19.111445  2.651938
  8356.992  8357.000  0.500  1.898987  128.517030  19.241605  2.651834
  8357.292  8357.300  0.500  1.892133  128.560987  19.380564  2.657390
  8357.594  8357.600  0.500  1.885186  128.555311  19.514798  2.667230
  8357.801  8357.800  0.500  1.880401  128.550001  19.607588  2.675841
  8358.778  8358.790  0.500  1.859383  128.522945  20.019862  2.740632
  8359.769  8359.790  0.500  1.843150  128.473072  20.339586  2.822393
  8361.115  8360.810  0.500  1.834995  128.498891  20.510267  2.894190
  8361.838  8361.860  0.500  1.836091  128.450837  20.480141  2.915840
  8362.992  8362.920  0.500  1.843195  128.403611  20.327689  2.932301
  8363.970  8364.000  0.500  1.850379  128.379272  20.178348  2.953588
  8365.107  8365.100  0.500  1.854359  128.343115  20.092543  2.992971
  8366.200  8366.220  0.500  1.852215  128.357675  20.137935  3.036181
  8367.346  8367.360  0.500  1.845088  128.256972  20.266064  3.074862
  8368.497  8368.510  0.500  1.835244  128.314190  20.475674  3.120506
  8369.680  8369.690  0.500  1.823874  128.264617  20.701811  3.162499
  8370.870  8370.880  0.500  1.812464  128.237879  20.935010  3.192371
  8372.090  8372.100  0.500  1.801360  128.242596  21.169539  3.202841
  8373.323  8373.330  0.500  1.792607  128.195853  21.347877  3.187101
  8374.574  8374.580  0.500  1.786741  128.135111  21.463289  3.146080
  8375.855  8375.850  0.500  1.783871  128.135586  21.525065  3.089779
  8377.134  8377.140  0.500  1.784167  128.099216  21.512574  3.018736
  8378.440  8378.450  0.500  1.787464  128.051957  21.433869  2.933883
  8379.771  8379.780  0.500  1.793258  128.048412  21.309450  2.850681
  8381.136  8381.130  0.500  1.801382  127.999862  21.129015  2.779044
  8382.498  8382.500  0.500  1.810615  127.939006  20.924869  2.736973
  8383.872  8383.880  0.500  1.821205  127.889895  20.696494  2.723391
  8385.289  8385.290  0.500  1.832286  127.875261  20.466094  2.736389
  8386.707  8386.710  0.500  1.843734  127.802547  20.221628  2.770854
  8388.146  8388.150  0.500  1.854537  127.778773  20.000624  2.818135
  8389.604  8389.610  0.500  1.864609  127.693052  19.786910  2.860849
  8391.084  8391.090  0.500  1.873421  127.665669  19.609094  2.898140
  8392.588  8392.590  0.500  1.880921  127.641814  19.458946  2.929477
  8394.114  8394.110  0.500  1.886586  127.601243  19.342871  2.949918
  8395.643  8395.650  0.500  1.890438  127.552034  19.261076  2.956820
  8397.204  8397.210  0.500  1.891804  127.442685  19.218294  2.952724
  8398.780  8398.780  0.500  1.890582  127.484033  19.248038  2.955445
  8400.378  8400.380  0.500  1.886359  127.434295  19.321952  2.972344
  8401.988  8401.990  0.500  1.880090  127.396963  19.437770  3.002104
  8403.633  8403.630  0.500  1.872829  127.281166  19.561625  3.030979
  8405.293  8405.280  0.500  1.864735  127.312964  19.725529  3.054474
  8406.951  8406.950  0.500  1.856622  127.266456  19.878935  3.060628
  8408.649  8408.640  0.500  1.848798  127.199002  20.024456  3.057558
  8410.351  8410.350  0.500  1.842010  127.173188  20.156754  3.057794
  8412.087  8412.080  0.500  1.835739  127.130826  20.276800  3.060839
  8413.830  8413.830  0.500  1.830501  127.093946  20.377386  3.055278
  8415.595  8415.590  0.500  1.826287  127.063050  20.458456  3.033414
  8417.388  8417.380  0.500  1.822950  127.017400  20.519466  3.003436
  8419.185  8419.180  0.500  1.820396  126.952245  20.561382  2.975372
  8421.012  8421.010  0.500  1.817842  126.910613  20.607207  2.947113
  8422.863  8422.850  0.500  1.815327  126.885003  20.654940  2.916037
  8424.713  8424.710  0.500  1.812595  126.832257  20.702833  2.878668
  8426.596  8426.590  0.500  1.809524  126.788614  20.759359  2.836492
  8428.503  8428.490  0.500  1.806552  126.751577  20.815058  2.798912
  8430.411  8430.410  0.500  1.803824  126.676281  20.859522  2.773002
  8432.360  8432.350  0.500  1.801897  126.652182  20.895779  2.771087
  8434.310  8434.310  0.500  1.800783  126.565939  20.904824  2.792009
  8436.291  8436.280  0.500  1.800363  126.503943  20.903368  2.834793
  8438.289  8438.280  0.500  1.800392  126.474968  20.897988  2.891271
  8440.294  8440.290  0.500  1.800433  126.404002  20.885404  2.951644
  8442.324  8442.320  0.500  1.799761  126.379037  20.895297  3.018514
  8444.388  8444.380  0.500  1.798219  126.332109  20.919775  3.087224
  8446.457  8446.450  0.500  1.795637  126.252805  20.960710  3.139368
  8448.555  8448.540  0.500  1.792310  126.162464  21.015502  3.187260
  8450.653  8450.650  0.500  1.788597  126.125076  21.087420  3.251055
  8452.793  8452.780  0.500  1.784957  126.084419  21.157507  3.331587
  8454.930  8454.920  0.500  1.782053  126.005241  21.205712  3.412288
  8457.102  8457.090  0.500  1.780463  125.953341  21.230703  3.473484
  8459.297  8459.280  0.500  1.780526  125.910763  21.222193  3.498472
  8461.487  8461.480  0.500  1.782109  125.850776  21.178535  3.487865
  8463.719  8463.700  0.500  1.784563  125.758572  21.111149  3.446270
  8465.957  8465.950  0.500  1.787356  125.682415  21.039519  3.387415
  8468.224  8468.210  0.500  1.789977  125.642831  20.977825  3.323817
  8470.505  8470.490  0.500  1.791424  125.564391  20.934428  3.263094
  8472.797  8472.790  0.500  1.791957  125.521602  20.916125  3.219356
  8475.127  8475.110  0.500  1.791510  125.413253  20.907421  3.201285
  8477.455  8477.450  0.500  1.790287  125.337793  20.920418  3.209591
  8479.818  8479.800  0.500  1.788887  125.807639  21.028256  3.245233
  8482.192  8482.180  0.500  1.787222  125.800418  21.062092  3.259902
  8484.586  8484.570  0.500  1.785212  125.745766  21.095301  3.239788
  8486.999  8486.990  0.500  1.782828  125.615477  21.123748  3.171775
  8489.442  8489.420  0.500  1.779723  125.572240  21.182133  3.080505
  8491.896  8491.870  0.500  1.775879  125.514509  21.253950  3.000718
  8494.370  8494.350  0.500  1.771311  125.436009  21.337888  2.956047
  8496.867  8496.840  0.500  1.765997  125.418661  21.448621  2.946345
  8499.365  8499.350  0.500  1.760259  125.337551  21.558088  2.953989
  8501.893  8501.870  0.500  1.754506  125.262344  21.669468  2.975929
  8504.432  8504.420  0.500  1.748927  125.184747  21.777212  3.020000
  8507.009  8506.990  0.500  1.743760  125.077238  21.871207  3.093254
  8509.589  8509.570  0.500  1.739600  125.035961  21.955139  3.193685
  8512.197  8512.180  0.500  1.736508  124.947721  22.007586  3.314951
  8514.808  8514.800  0.500  1.734459  124.752589  22.018290  3.451337
  8517.470  8517.450  0.500  1.733231  124.744063  22.043832  3.600927
  8520.121  8520.110  0.500  1.732673  124.626628  22.035371  3.731360
  8522.808  8522.790  0.500  1.732302  124.428823  22.008566  3.813501
  8525.512  8525.490  0.500  1.731741  124.195653  21.979651  3.833395
  8528.228  8528.210  0.500  1.731051  123.444464  21.861780  3.775139
  8530.964  8530.950  0.500  1.729972  108.993019  19.323307  3.271240
  8533.718  8533.700  0.500  1.728622  124.111557  22.033395  3.640965
  8536.489  8536.480  0.500  1.727175  124.546031  22.142530  3.582557
  8539.293  8539.270  0.500  1.725646  124.503947  22.168919  3.527467
  8542.096  8542.090  0.500  1.723820  124.369878  22.185524  3.494302
  8544.945  8544.920  0.500  1.721797  124.251225  22.209252  3.490097
  8547.792  8547.770  0.500  1.719630  124.175876  22.243930  3.505430
  8550.673  8550.650  0.500  1.717517  124.066604  22.271357  3.527858
  8553.559  8553.540  0.500  1.714790  123.984190  22.317349  3.554702
  8556.466  8556.450  0.500  1.711589  123.942070  22.381291  3.591705
  8559.388  8559.370  0.500  1.707773  123.842384  22.448777  3.636394
  8562.343  8562.320  0.500  1.703761  123.736847  22.519835  3.677396
  8565.313  8565.290  0.500  1.700077  123.658856  22.588693  3.687504
  8568.282  8568.270  0.500  1.697156  123.534724  22.632036  3.650473
  8571.303  8571.280  0.500  1.694978  123.520273  22.678721  3.587111
  8574.320  8574.300  0.500  1.693191  123.432870  22.703222  3.528906
  8577.371  8577.350  0.500  1.691380  123.340513  22.727358  3.488986
  8580.424  8580.410  0.500  1.689383  123.237061  22.753675  3.470935
  8583.515  8583.490  0.500  1.687043  123.122144  22.785710  3.470034
  8586.617  8586.590  0.500  1.684683  122.993205  22.815636  3.492920
  8589.724  8589.710  0.500  1.682434  122.778790  22.827151  3.540743
  8592.875  8592.850  0.500  1.679987  113.560689  21.165040  3.349032
  8596.007  8596.000  0.500  1.678060  121.023483  22.599423  3.663057
  8599.191  8599.180  0.500  1.675795  122.105031  22.853097  3.792199
  8602.391  8602.370  0.500  1.673499  122.114467  22.907394  3.876350
  8605.593  8605.590  0.500  1.671204  121.958327  22.930661  3.932601
  8608.838  8608.820  0.500  1.668678  121.653770  22.931270  3.959835
  8612.084  8612.070  0.500  1.666066  121.152375  22.896478  3.958486
  8615.357  8615.350  0.500  1.662977  119.213321  22.599710  3.904502
  8618.652  8618.640  0.500  1.659728  86.277243  16.409128  2.837062
  8621.959  8621.950  0.500  1.656058  123.318326  23.540222  4.073090
  8625.288  8625.270  0.500  1.652095  122.989657  23.570719  4.082809
  8628.638  8628.620  0.500  1.647689  122.672323  23.613711  4.093386
  8631.998  8631.990  0.500  1.643475  122.409624  23.662663  4.098823
  8635.367  8635.370  0.500  1.639690  122.239628  23.719399  4.093971
  8638.793  8638.780  0.500  1.636465  122.030837  23.755385  4.082187
  8642.212  8642.200  0.500  1.633652  120.314276  23.487192  4.017672
  8645.653  8645.650  0.500  1.631271  118.215835  23.132568  3.942865
  8649.114  8649.110  0.500  1.628856  121.225825  23.778901  4.045126
  8652.606  8652.590  0.500  1.626497  121.330667  23.855693  4.053526
  8656.107  8656.090  0.500  1.624000  121.273553  23.904079  4.056002
  8659.618  8659.610  0.500  1.621281  121.249347  23.964365  4.056681
  8663.163  8663.150  0.500  1.618884  121.135407  23.999297  4.049301
  8666.719  8666.700  0.500  1.616600  120.989095  24.025139  4.038523
  8670.290  8670.280  0.500  1.614630  120.915395  24.057834  4.037780
  8673.890  8673.880  0.500  1.612670  120.809886  24.084017  4.054511
  8677.509  8677.490  0.500  1.610637  120.715071  24.114082  4.088770
  8681.129  8681.120  0.500  1.608372  120.612989  24.148329  4.133740
  8684.803  8684.780  0.500  1.605863  120.499970  24.186311  4.186608
  8688.467  8688.450  0.500  1.603321  120.378082  24.223348  4.239262
  8692.148  8692.140  0.500  1.600443  120.219798  24.261205  4.280652
  8695.871  8695.850  0.500  1.597243  120.048720  24.304338  4.303886
  8699.603  8699.580  0.500  1.593735  119.856784  24.350749  4.313209
  8703.332  8703.320  0.500  1.590101  119.428962  24.352172  4.316874
  8707.111  8707.090  0.500  1.586284  113.906077  23.314853  4.150299
  8710.889  8710.880  0.500  1.582741  119.712861  24.590370  4.414013
  8714.690  8714.680  0.500  1.579347  119.907286  24.714060  4.482356
  8718.524  8718.510  0.500  1.576102  119.819203  24.776155  4.524124
  8722.365  8722.350  0.500  1.573022  119.689836  24.825748  4.543216
  8726.233  8726.210  0.500  1.570110  119.537941  24.866553  4.554868
  8730.110  8730.090  0.500  1.567097  119.380839  24.908826  4.568587
  8734.010  8733.990  0.500  1.564111  119.266080  24.959283  4.580681
  8737.934  8737.910  0.500  1.561036  119.156099  25.013063  4.589404
  8741.888  8741.850  0.500  1.557952  118.982002  25.053676  4.595043
  8745.835  8745.810  0.500  1.554860  118.918168  25.117764  4.602312
  8749.797  8749.780  0.500  1.551891  118.784669  25.164184  4.606887
  8753.807  8753.780  0.500  1.548977  118.685260  25.216477  4.613275
  8757.815  8757.790  0.500  1.546244  118.567221  25.260362  4.616193
  8761.847  8761.830  0.500  1.543340  118.448874  25.308518  4.623599
  8765.899  8765.880  0.500  1.540610  118.310010  25.347970  4.630221
  8769.981  8769.950  0.500  1.537724  118.176198  25.392463  4.636997
  8774.058  8774.040  0.500  1.534657  118.058367  25.445068  4.648084
  8778.164  8778.150  0.500  1.531703  117.990536  25.505697  4.667257
  8782.305  8782.280  0.500  1.528301  117.835821  25.559038  4.692871
  8786.449  8786.430  0.500  1.525005  117.676860  25.608825  4.726964
  8790.604  8790.590  0.500  1.521643  117.601160  25.678538  4.774129
  8794.800  8794.780  0.500  1.518239  117.454905  25.734070  4.819097
  8799.003  8798.980  0.500  1.514873  117.342123  25.796042  4.859030
  8803.227  8803.210  0.500  1.511545  117.238027  25.859060  4.889613
  8807.469  8807.450  0.500  1.508282  117.086016  25.909939  4.909592
  8811.734  8811.710  0.500  1.505123  116.956492  25.963181  4.926181
  8816.014  8815.990  0.500  1.502048  116.848435  26.019074  4.944738
  8820.309  8820.290  0.500  1.499002  116.707628  26.066986  4.964127
  8824.631  8824.610  0.500  1.496028  116.560127  26.111593  4.990393
  8828.971  8828.950  0.500  1.492881  116.451257  26.169431  5.025681
  8833.338  8833.310  0.500  1.489814  116.366041  26.230597  5.063466
  8837.707  8837.690  0.500  1.486803  116.215103  26.275584  5.093653
  8842.097  8842.080  0.500  1.483713  116.066898  26.323268  5.118472
  8846.525  8846.500  0.500  1.480740  115.947541  26.374513  5.145589
  8850.948  8850.930  0.500  1.477749  115.768167  26.412588  5.169128
  8855.399  8855.380  0.500  1.474704  115.697749  26.477025  5.198004
  8859.878  8859.850  0.500  1.471572  115.568550  26.530424  5.219628
  8864.361  8864.340  0.500  1.468434  115.406281  26.576443  5.235433
  8868.880  8868.850  0.500  1.465158  115.248239  26.627113  5.249017
  8873.414  8873.380  0.500  1.461781  115.198745  26.705717  5.264237
  8877.966  8877.930  0.500  1.458376  115.024279  26.756215  5.274013
  8882.526  8882.500  0.500  1.455118  114.880959  26.810091  5.280974
  8887.108  8887.080  0.500  1.451682  114.757034  26.873357  5.288399
  8891.718  8891.690  0.500  1.448147  114.634982  26.939828  5.300006
  8896.331  8896.310  0.500  1.444745  114.492038  26.997924  5.315667
  8900.989  8900.960  0.500  1.441320  114.305771  27.046496  5.339143
  8905.634  8905.620  0.500  1.437937  114.165114  27.104755  5.376527
  8910.320  8910.300  0.500  1.434624  113.443600  27.022818  5.391241
  8915.030  8915.000  0.500  1.431221  113.920727  27.228979  5.462304
  8919.736  8919.720  0.500  1.427819  113.822066  27.298108  5.500613
  8924.480  8924.460  0.500  1.424619  111.730904  26.882464  5.437117
  8929.234  8929.210  0.500  1.421350  113.383822  27.369498  5.552399
  8934.010  8933.990  0.500  1.418054  113.477788  27.482601  5.591652
  8938.818  8938.790  0.500  1.414774  113.279790  27.524780  5.613595
  8943.622  8943.600  0.500  1.411573  113.111397  27.571971  5.637219
  8948.455  8948.430  0.500  1.408327  112.998024  27.633906  5.663487
  8953.318  8953.290  0.500  1.405104  112.606259  27.626981  5.679832
  8958.185  8958.160  0.500  1.401877  112.673420  27.732825  5.717380
  8963.080  8963.050  0.500  1.398607  112.539963  27.790691  5.746340
  8967.990  8967.960  0.500  1.395369  112.339356  27.831137  5.773896
  8972.905  8972.890  0.500  1.392017  112.253687  27.903295  5.807943
  8977.847  8977.830  0.500  1.388662  112.073446  27.952098  5.835030
  8982.826  8982.800  0.500  1.385236  111.583760  27.925491  5.845127
  8987.814  8987.790  0.500  1.381825  111.691164  28.047868  5.884152
  8992.831  8992.790  0.500  1.378485  111.342926  28.053967  5.896894
  8997.866  8997.820  0.500  1.374968  111.498314  28.192090  5.936481
  9002.912  9002.860  0.500  1.371576  111.073342  28.180074  5.946047
  9007.962  9007.920  0.500  1.368324  111.126891  28.285480  5.979216
  9013.048  9013.000  0.500  1.364784  110.891983  28.325774  5.996534
  9018.127  9018.100  0.500  1.361445  110.724307  28.377554  6.016161
  9023.253  9023.220  0.500  1.357949  110.789387  28.493671  6.051608
  9028.340  9028.360  0.500  1.354653  110.604994  28.540159  6.075340
  9033.541  9033.520  0.500  1.351092  110.400930  28.589131  6.099878
  9038.713  9038.700  0.500  1.347770  110.172820  28.624982  6.125378
  9043.913  9043.890  0.500  1.344297  110.023307  28.685586  6.152703
  9049.133  9049.110  0.500  1.340908  109.905699  28.752201  6.186300
  9054.352  9054.340  0.500  1.337582  109.737384  28.803829  6.217474
  9059.616  9059.590  0.500  1.334015  109.593860  28.868932  6.250440
  9064.887  9064.860  0.500  1.330707  108.739619  28.738845  6.242605
  9070.174  9070.150  0.500  1.327414  109.222783  28.961743  6.308938
  9075.482  9075.460  0.500  1.323915  109.069422  29.022460  6.339773
  9080.814  9080.790  0.500  1.320480  108.888600  29.074021  6.367612
  9086.166  9086.140  0.500  1.317008  108.666402  29.115619  6.397689
  9091.529  9091.510  0.500  1.313559  108.552712  29.185631  6.430797
  9096.941  9096.890  0.500  1.310055  108.404578  29.248134  6.461958
  9102.295  9102.300  0.500  1.306619  108.226031  29.300463  6.491816
  9107.695  9107.720  0.500  1.303077  108.084413  29.365932  6.525142
  9113.223  9113.170  0.500  1.299515  107.909126  29.422932  6.556707
  9118.683  9118.630  0.500  1.296060  107.747965  29.480666  6.588971
  9124.117  9124.110  0.500  1.292619  107.606543  29.543463  6.622687
  9129.670  9129.610  0.500  1.289103  107.387838  29.587253  6.650810
  9135.110  9135.130  0.500  1.285633  107.202734  29.638939  6.677586
  9140.673  9140.670  0.500  1.282182  106.877372  29.651130  6.694816
  9146.188  9146.220  0.500  1.278713  106.458567  29.637581  6.705827
  9151.851  9151.800  0.500  1.275211  106.877284  29.858531  6.767637
  9157.373  9157.400  0.500  1.271780  105.624580  29.609958  6.726920
  9162.984  9163.010  0.500  1.268351  106.500188  29.957979  6.820588
  9168.603  9168.650  0.500  1.264853  104.333107  29.451235  6.721030
  9174.280  9174.300  0.500  1.261398  106.366826  30.129222  6.894536
  9180.041  9179.970  0.500  1.258028  106.011975  30.130076  6.914810
  9185.688  9185.660  0.500  1.254615  106.265930  30.305516  6.973250
