# XDI/1.0 BlueSky/1.10.0 BMM/2023-1.0-py310-tiled
# Beamline.name: BMM (06BM) -- Beamline for Materials Measurement (NIST)
# Beamline.xray_source: NSLS-II three-pole wiggler
# Beamline.collimation: paraboloid mirror, 5 nm Rh on 30 nm Pt
# Beamline.focusing: not in use
# Beamline.harmonic_rejection: flat mirror, Pt stripe, pitch = 7.0 mrad relative to beam
# Beamline.software: Bluesky 1.10.0, Ophyd 1.7.0, DataBroker 2.0.0b13, Python 3.10.8, 2023-1.0-py310-tiled
# Detector.I0: 10 cm N2
# Detector.I1: 25 cm N2
# Detector.I2: 25 cm N2
# Element.symbol: Ga
# Element.edge: K
# Element.reference: Ga
# Element.reference_material: Ga2O3
# Facility.name: NSLS-II
# Facility.energy: 3.0
# Facility.current: 400.5
# Facility.mode: top-off
# Facility.GUP: 301027
# Facility.SAF: 310583
# Facility.cycle: 2023-2
# Mono.name: Si(111)
# Mono.d_spacing: 3.1351860
# Mono.encoder_resolution: 0.0000050 deg/ct
# Mono.angle_offset: 16.0754326 deg
# Mono.scan_mode: pseudo channel cut
# Mono.scan_type: step
# Mono.direction: forward in energy
# Sample.name: Ga2O3
# Sample.prep: PEG pellet
# Sample.x: 109.138 mm
# Sample.y: 153.150 mm
# Sample.SDD_position: 205.000 mm
# Scan.experimenters: Bruce Ravel
# Scan.edge_energy: 10367.1
# Scan.start_time: 2023-05-28T17:51:34
# Scan.end_time: 2023-05-28T18:01:15
# Scan.transient_id: 78889
# Scan.uid: 31a74b23-714d-4325-a281-81de3fea1505
# Scan.plot_hint: ln(It/Ir)  --  ln($6/$7)
# Column.1: energy eV
# Column.2: requested_energy eV
# Column.3: measurement_time seconds
# Column.4: xmu 
# Column.5: I0 nA
# Column.6: It nA
# Column.7: Ir nA
# ///////////
# sample courtesy Martin Stennett, University of Sheffield
# -----------
# energy  requested_energy  measurement_time  xmu  I0  It  Ir
  10167.101  10167.100  0.500  0.725172  93.677484  145.263210  70.342427
  10177.135  10177.100  0.500  0.723017  93.561995  145.193967  70.460567
  10187.171  10187.100  0.500  0.720874  93.408467  145.055783  70.544540
  10197.156  10197.100  0.500  0.718848  93.194293  144.843582  70.584190
  10207.133  10207.100  0.500  0.716796  93.004743  144.614401  70.617263
  10217.153  10217.100  0.500  0.714836  92.850622  144.484221  70.692107
  10227.103  10227.100  0.500  0.712798  92.594592  144.184655  70.689513
  10237.131  10237.100  0.500  0.710773  92.446216  144.033519  70.758520
  10247.134  10247.100  0.500  0.708800  92.303447  143.920920  70.842862
  10257.143  10257.100  0.500  0.706829  92.135549  143.765123  70.905805
  10267.126  10267.100  0.500  0.704874  91.944542  143.547648  70.937051
  10277.130  10277.100  0.500  0.703005  91.529897  142.993430  70.795343
  10287.135  10287.100  0.500  0.701168  91.607560  143.214606  71.035227
  10297.136  10297.100  0.500  0.699327  91.419780  143.008394  71.063647
  10307.158  10307.100  0.500  0.697677  91.254962  142.852085  71.103195
  10317.121  10317.100  0.500  0.696084  91.052982  142.632668  71.107221
  10327.127  10327.100  0.500  0.694758  90.884753  142.450989  71.110834
  10337.120  10337.100  0.500  0.693887  90.699185  142.261429  71.078099
  10339.097  10339.100  0.500  0.693776  90.665428  142.217121  71.063828
  10341.084  10341.100  0.500  0.693777  90.639843  142.202332  71.056410
  10343.086  10343.100  0.500  0.693816  90.588714  142.142889  71.023904
  10345.083  10345.100  0.500  0.693930  90.528924  142.070905  70.979872
  10347.087  10347.100  0.500  0.694141  90.486713  142.017868  70.938431
  10349.081  10349.100  0.500  0.694372  90.412908  141.913377  70.869834
  10351.082  10351.100  0.500  0.694800  90.382357  141.901678  70.833634
  10353.078  10353.100  0.500  0.695429  90.358978  141.879591  70.778099
  10355.089  10355.100  0.500  0.696169  90.286517  141.761712  70.666996
  10357.082  10357.100  0.500  0.697252  90.263065  141.733508  70.576460
  10357.361  10357.400  0.500  0.697524  90.251338  141.735954  70.558483
  10357.663  10357.700  0.500  0.697717  90.252614  141.738356  70.546080
  10357.956  10358.000  0.500  0.697947  90.243930  141.725602  70.523466
  10358.258  10358.300  0.500  0.698206  90.239979  141.730633  70.507725
  10358.555  10358.600  0.500  0.698475  90.249382  141.741143  70.493982
  10358.862  10358.900  0.500  0.698720  90.236603  141.719077  70.465748
  10359.164  10359.200  0.500  0.699080  90.209924  141.699424  70.430643
  10359.467  10359.500  0.500  0.699333  90.203383  141.692508  70.409365
  10359.769  10359.800  0.500  0.699640  90.203888  141.691332  70.387184
  10360.066  10360.100  0.500  0.699925  90.193985  141.669613  70.356320
  10360.369  10360.400  0.500  0.700367  90.199254  141.695396  70.338003
  10360.690  10360.700  0.500  0.700756  90.207102  141.702312  70.314132
  10360.973  10361.000  0.500  0.701182  90.188251  141.675107  70.270659
  10361.289  10361.300  0.500  0.701595  90.178576  141.667568  70.237897
  10361.573  10361.600  0.500  0.702041  90.182457  141.669349  70.207460
  10361.880  10361.900  0.500  0.702518  90.173082  141.644993  70.161923
  10362.192  10362.200  0.500  0.703030  90.163293  141.643414  70.125222
  10362.480  10362.500  0.500  0.703535  90.153804  141.648779  70.092502
  10362.783  10362.800  0.500  0.704039  90.158134  141.647806  70.056681
  10363.099  10363.100  0.500  0.704686  90.153518  141.654688  70.014770
  10363.383  10363.400  0.500  0.705276  90.162080  141.662552  69.977398
  10363.690  10363.700  0.500  0.705945  90.153195  141.653054  69.925876
  10363.978  10364.000  0.500  0.706740  90.152144  141.661999  69.874695
  10364.290  10364.300  0.500  0.707551  90.133785  141.630995  69.802812
  10364.579  10364.600  0.500  0.708304  90.127375  141.606142  69.738001
  10364.886  10364.900  0.500  0.709208  90.130238  141.603359  69.673646
  10365.189  10365.200  0.500  0.710176  90.108509  141.582144  69.595811
  10365.468  10365.500  0.500  0.711173  90.124296  141.604697  69.537543
  10365.784  10365.800  0.500  0.712367  90.114079  141.598659  69.451596
  10366.078  10366.100  0.500  0.713633  90.129447  141.632105  69.380116
  10366.394  10366.400  0.500  0.714989  90.107318  141.596472  69.268673
  10366.678  10366.700  0.500  0.716363  90.099001  141.588310  69.169556
  10366.976  10367.000  0.500  0.717930  90.113821  141.610951  69.072272
  10367.279  10367.300  0.500  0.719590  90.106428  141.591801  68.948425
  10367.595  10367.600  0.500  0.721538  90.084800  141.568161  68.802695
  10367.880  10367.900  0.500  0.723435  90.109477  141.605682  68.690512
  10368.192  10368.200  0.500  0.725770  90.118478  141.609745  68.532254
  10368.494  10368.500  0.500  0.728256  90.109411  141.613449  68.363933
  10368.802  10368.800  0.500  0.731127  90.093322  141.589462  68.156380
  10369.095  10369.100  0.500  0.734227  90.087299  141.579505  67.940676
  10369.393  10369.400  0.500  0.737891  90.113518  141.630064  67.716309
  10369.710  10369.700  0.500  0.742304  90.079282  141.576433  67.392664
  10369.994  10370.000  0.500  0.746986  90.074534  141.556561  67.068449
  10370.297  10370.300  0.500  0.752810  90.062817  141.534497  66.668535
  10370.600  10370.600  0.500  0.759708  90.080398  141.582728  66.232854
  10370.894  10370.900  0.500  0.767749  90.046099  141.527840  65.676924
  10371.206  10371.200  0.500  0.777750  90.075552  141.585662  65.049943
  10371.485  10371.500  0.500  0.789082  90.075818  141.597071  64.322133
  10371.788  10371.800  0.500  0.803857  90.032862  141.526276  63.347049
  10372.087  10372.100  0.500  0.820768  90.043393  141.541236  62.291363
  10372.385  10372.400  0.500  0.841045  90.044875  141.549072  61.044400
  10372.688  10372.700  0.500  0.865997  90.027273  141.529166  59.531715
  10372.986  10373.000  0.500  0.894501  90.026850  141.533699  57.860599
  10373.294  10373.300  0.500  0.930388  90.018413  141.519666  55.815426
  10373.606  10373.600  0.500  0.974914  90.029384  141.544678  53.394149
  10373.895  10373.900  0.500  1.026188  90.014979  141.524149  50.718079
  10374.194  10374.200  0.500  1.088895  90.002732  141.512138  47.631322
  10374.502  10374.500  0.500  1.163457  90.035975  141.571209  44.227468
  10374.791  10374.800  0.500  1.241395  90.006225  141.526480  40.898424
  10375.108  10375.100  0.500  1.328957  90.009014  141.534033  37.471598
  10375.388  10375.400  0.500  1.407191  90.008647  141.528275  34.650386
  10375.700  10375.700  0.500  1.483368  89.995121  141.523948  32.107873
  10375.994  10376.000  0.500  1.547776  90.006465  141.530009  30.106351
  10376.288  10376.300  0.500  1.600631  90.250086  141.927546  28.636596
  10376.596  10376.600  0.500  1.645154  90.277985  141.982782  27.400251
  10376.880  10376.900  0.500  1.678830  90.241392  141.925544  26.482201
  10377.188  10377.200  0.500  1.705798  90.258033  141.963837  25.784515
  10377.482  10377.500  0.500  1.727946  90.273298  141.980569  25.222702
  10377.785  10377.800  0.500  1.746627  90.250274  141.936592  24.748223
  10378.089  10378.100  0.500  1.764705  90.239661  141.920073  24.302014
  10378.387  10378.400  0.500  1.782951  90.235274  141.911799  23.861225
  10378.695  10378.700  0.500  1.803514  90.230703  141.895499  23.372902
  10378.999  10379.000  0.500  1.825156  90.249679  141.935535  22.878953
  10379.297  10379.300  0.500  1.845353  90.225166  141.895526  22.415168
  10379.601  10379.600  0.500  1.861743  90.209899  141.890975  22.050084
  10379.895  10379.900  0.500  1.869294  90.202952  141.893704  21.884619
  10380.189  10380.200  0.500  1.866143  90.202473  141.896077  21.954053
  10380.506  10380.500  0.500  1.850374  90.200850  141.889378  22.301948
  10380.796  10380.800  0.500  1.825511  90.186746  141.871134  22.860450
  10381.099  10381.100  0.500  1.792169  90.182405  141.865201  23.634519
  10381.403  10381.400  0.500  1.753033  90.159489  141.830365  24.571794
  10381.692  10381.700  0.500  1.713449  90.203167  141.902259  25.576897
  10382.029  10382.000  0.500  1.668613  90.150383  141.822478  26.734709
  10382.323  10382.300  0.500  1.629084  90.141113  141.808829  27.809999
  10382.622  10382.600  0.500  1.590320  90.135107  141.802419  28.907891
  10382.883  10382.900  0.500  1.558262  90.125395  141.789352  29.846879
  10383.304  10383.200  0.500  1.517255  90.150868  141.837642  31.106853
  10383.449  10383.500  0.500  1.502139  90.086013  141.717051  31.553779
  10383.761  10383.800  0.500  1.477380  90.065909  141.696210  32.340032
  10384.032  10384.100  0.500  1.459291  89.996368  141.575249  32.902217
  10384.355  10384.400  0.500  1.442231  89.915828  141.464985  33.442286
  10384.747  10384.700  0.500  1.424492  89.931668  141.504687  34.050376
  10384.953  10385.000  0.500  1.415946  89.857587  141.376885  34.311594
  10385.252  10385.300  0.500  1.404677  89.888901  141.427090  34.712742
  10385.565  10385.600  0.500  1.393061  89.859388  141.391046  35.109368
  10385.864  10385.900  0.500  1.381490  89.836159  141.370035  35.512712
  10386.168  10386.200  0.500  1.369767  89.830717  141.356036  35.927918
  10386.458  10386.500  0.500  1.358127  89.827627  141.351727  36.347474
  10386.757  10386.800  0.500  1.346486  89.844360  141.374435  36.778947
  10387.061  10387.100  0.500  1.335089  89.815521  141.325355  37.187604
  10387.374  10387.400  0.500  1.323794  89.813068  141.337764  37.613321
  10387.664  10387.700  0.500  1.313777  89.795059  141.317554  37.986555
  10387.963  10388.000  0.500  1.304204  89.788118  141.313191  38.350762
  10388.262  10388.300  0.500  1.294851  89.767864  141.280326  38.702160
  10388.561  10388.600  0.500  1.286317  89.783613  141.308906  39.041750
  10388.865  10388.900  0.500  1.277562  89.765334  141.277509  39.376298
  10389.169  10389.200  0.500  1.269740  89.746776  141.244653  39.676282
  10389.469  10389.500  0.500  1.262691  89.756197  141.261276  39.961656
  10389.782  10389.800  0.500  1.256450  89.728890  141.218961  40.199778
  10390.081  10390.100  0.500  1.251738  89.726620  141.227504  40.392113
  10390.381  10390.400  0.500  1.247741  89.739532  141.244282  40.558690
  10390.685  10390.700  0.500  1.244693  89.723723  141.217049  40.674665
  10390.984  10391.000  0.500  1.242524  89.723110  141.219499  40.763663
  10391.288  10391.300  0.500  1.240517  89.721743  141.228040  40.848058
  10391.588  10391.600  0.500  1.238718  89.712646  141.221255  40.919613
  10391.882  10391.900  0.500  1.237087  89.713541  141.220046  40.986080
  10392.093  10392.100  0.500  1.236020  89.691590  141.185831  41.019868
  10393.104  10393.090  0.500  1.231867  89.679285  141.168166  41.185437
  10394.101  10394.090  0.500  1.231178  89.659752  141.144490  41.206903
  10395.107  10395.110  0.500  1.233122  89.656161  141.146459  41.127467
  10396.156  10396.160  0.500  1.235625  89.597695  141.082948  41.006207
  10397.215  10397.220  0.500  1.239974  89.585407  141.069730  40.824412
  10398.287  10398.300  0.500  1.245342  89.821739  141.445867  40.714139
  10399.403  10399.400  0.500  1.246243  89.824737  141.449401  40.678463
  10400.537  10400.520  0.500  1.237224  89.801770  141.428681  41.041001
  10401.662  10401.660  0.500  1.218198  89.782351  141.406171  41.822658
  10402.815  10402.810  0.500  1.192923  89.770230  141.395635  42.890012
  10404.002  10403.990  0.500  1.167798  89.742066  141.369273  43.973071
  10405.169  10405.180  0.500  1.149106  89.699419  141.299976  44.780801
  10406.403  10406.400  0.500  1.137597  89.688048  141.300407  45.299275
  10407.638  10407.630  0.500  1.133466  89.677578  141.294029  45.484745
  10408.896  10408.880  0.500  1.134476  89.651052  141.276878  45.433330
  10410.159  10410.150  0.500  1.137913  89.637835  141.257525  45.271230
  10411.455  10411.440  0.500  1.141784  89.598959  141.196614  45.076868
  10412.761  10412.750  0.500  1.146887  89.576985  141.178674  44.841753
  10414.086  10414.080  0.500  1.155054  89.568696  141.183810  44.478625
  10415.435  10415.430  0.500  1.168072  89.534475  141.127576  43.885855
  10416.803  10416.800  0.500  1.186766  89.515751  141.123260  43.071778
  10418.190  10418.180  0.500  1.208988  89.490866  141.094357  42.116543
  10419.606  10419.590  0.500  1.230612  89.452236  141.044561  41.201067
  10421.018  10421.010  0.500  1.249447  89.420414  141.013197  40.423319
  10422.462  10422.450  0.500  1.265040  89.397842  140.978083  39.787956
  10423.922  10423.910  0.500  1.276616  89.380055  140.966358  39.326758
  10425.396  10425.390  0.500  1.284754  89.339082  140.913628  38.993411
  10426.889  10426.890  0.500  1.290089  89.319461  140.894553  38.780700
  10428.416  10428.410  0.500  1.292463  89.282493  140.847414  38.675794
  10429.962  10429.950  0.500  1.292346  89.252290  140.807909  38.669461
  10431.522  10431.510  0.500  1.290930  89.256232  140.834345  38.731542
  10433.093  10433.080  0.500  1.289641  89.208206  140.772118  38.764363
  10434.673  10434.680  0.500  1.289694  89.165725  140.708833  38.744887
  10436.301  10436.290  0.500  1.291312  89.141123  140.681105  38.674604
  10437.944  10437.930  0.500  1.294400  89.101550  140.635817  38.542965
  10439.592  10439.580  0.500  1.296672  89.053348  140.585297  38.441683
  10441.259  10441.250  0.500  1.296301  89.038332  140.580082  38.454510
  10442.937  10442.940  0.500  1.293409  89.011546  140.551770  38.558110
  10444.653  10444.650  0.500  1.288098  88.966794  140.504578  38.750421
  10446.393  10446.380  0.500  1.280732  88.945086  140.483397  39.031040
  10448.143  10448.130  0.500  1.273025  88.892151  140.417271  39.314500
  10449.908  10449.890  0.500  1.265701  88.886171  140.407664  39.600775
  10451.678  10451.680  0.500  1.259102  88.849479  140.359868  39.849429
  10453.472  10453.480  0.500  1.253382  88.827063  140.338199  40.071826
  10455.329  10455.310  0.500  1.247802  88.764064  140.256271  40.272533
  10457.158  10457.150  0.500  1.243035  88.725863  140.226409  40.456342
  10459.007  10459.010  0.500  1.238555  88.720007  140.236922  40.641016
  10460.894  10460.890  0.500  1.234234  88.667464  140.159285  40.794432
  10462.810  10462.790  0.500  1.230619  88.642502  140.141592  40.936992
  10464.723  10464.710  0.500  1.227927  88.603823  140.094534  41.033566
  10466.645  10466.650  0.500  1.226521  88.541787  140.028434  41.071903
  10468.611  10468.610  0.500  1.225964  88.501539  139.983389  41.081581
  10470.592  10470.580  0.500  1.225761  88.468689  139.937760  41.076535
  10472.598  10472.580  0.500  1.225749  88.437427  139.917148  41.070960
  10474.585  10474.590  0.500  1.225106  88.387136  139.846223  41.076561
  10476.635  10476.620  0.500  1.223983  88.355678  139.809915  41.112030
  10478.690  10478.680  0.500  1.222564  88.318098  139.769043  41.158386
  10480.766  10480.750  0.500  1.221563  88.279382  139.721202  41.185476
  10482.837  10482.840  0.500  1.221054  88.261369  139.708705  41.202791
  10484.947  10484.950  0.500  1.220894  88.196352  139.616467  41.182157
  10487.092  10487.080  0.500  1.220424  88.154791  139.557749  41.184173
  10489.218  10489.220  0.500  1.219949  88.127789  139.546058  41.200293
  10491.389  10491.390  0.500  1.219304  88.083119  139.488589  41.209929
  10493.584  10493.580  0.500  1.218801  88.050299  139.456831  41.221277
  10495.784  10495.780  0.500  1.218792  88.003172  139.395009  41.203346
  10498.000  10498.000  0.500  1.219446  87.944183  139.325821  41.155967
  10500.251  10500.250  0.500  1.220832  87.916102  139.308996  41.094006
  10502.531  10502.510  0.500  1.222998  87.877085  139.276582  40.995562
  10504.798  10504.790  0.500  1.226377  87.829085  139.198870  40.834482
  10507.089  10507.090  0.500  1.230547  87.802172  139.169431  40.655931
  10509.411  10509.410  0.500  1.234572  87.758749  139.136552  40.483065
  10511.767  10511.750  0.500  1.237777  87.599686  138.907114  40.286973
  10514.104  10514.100  0.500  1.239833  87.647711  139.006681  40.233049
  10516.487  10516.480  0.500  1.240819  87.609271  138.957130  40.179078
  10518.889  10518.870  0.500  1.241139  87.563585  138.901754  40.150227
  10521.302  10521.290  0.500  1.240656  87.513694  138.848178  40.154105
  10523.716  10523.720  0.500  1.239465  87.462182  138.774949  40.180751
  10526.184  10526.170  0.500  1.237522  87.181766  138.359303  40.138336
  10528.649  10528.650  0.500  1.234623  87.382289  138.694895  40.352519
  10531.153  10531.140  0.500  1.231527  87.341883  138.643078  40.462517
  10533.658  10533.650  0.500  1.228795  87.293063  138.571451  40.552254
  10536.180  10536.170  0.500  1.226169  87.270325  138.579452  40.661240
  10538.716  10538.720  0.500  1.223330  87.181108  138.446821  40.737782
  10541.302  10541.290  0.500  1.220666  87.109674  138.363819  40.821981
  10543.880  10543.870  0.500  1.218217  87.099948  138.371508  40.924340
  10546.483  10546.480  0.500  1.216004  87.064528  138.326723  41.001723
  10549.102  10549.100  0.500  1.213930  87.015962  138.262382  41.067767
  10551.756  10551.750  0.500  1.212205  86.949412  138.199645  41.119969
  10554.412  10554.410  0.500  1.211244  86.886400  138.125131  41.137334
  10557.107  10557.090  0.500  1.210217  86.798254  137.990679  41.139509
  10559.799  10559.790  0.500  1.209228  86.808832  138.029630  41.191829
  10562.517  10562.510  0.500  1.208516  86.754195  137.973544  41.204446
  10565.255  10565.250  0.500  1.208283  86.713601  137.929274  41.200827
  10568.000  10568.000  0.500  1.208644  86.654957  137.854648  41.163662
  10570.785  10570.780  0.500  1.209072  86.606882  137.801769  41.130258
  10573.591  10573.570  0.500  1.209262  86.538327  137.719359  41.097854
  10576.393  10576.390  0.500  1.209079  86.487869  137.656477  41.086618
  10579.236  10579.220  0.500  1.208881  86.429378  137.596840  41.076922
  10582.075  10582.070  0.500  1.208568  86.392517  137.550844  41.076068
  10584.950  10584.950  0.500  1.207837  86.293409  137.421791  41.067526
  10587.846  10587.840  0.500  1.206356  86.238590  137.368470  41.112427
  10590.773  10590.750  0.500  1.204168  86.216678  137.344220  41.195242
  10593.687  10593.670  0.500  1.201622  86.165457  137.289403  41.283768
  10596.646  10596.620  0.500  1.198863  86.138565  137.264678  41.390363
  10599.588  10599.590  0.500  1.196156  86.006131  137.088886  41.449397
  10602.594  10602.570  0.500  1.193584  85.994675  137.097400  41.558738
  10605.588  10605.580  0.500  1.191745  85.837558  136.862116  41.563763
  10608.598  10608.600  0.500  1.190735  85.890913  136.973541  41.639635
  10611.683  10611.650  0.500  1.190379  85.723876  136.725304  41.578972
  10614.711  10614.710  0.500  1.190518  85.784740  136.847469  41.610346
  10617.800  10617.790  0.500  1.191167  85.654102  136.667469  41.528644
  10620.900  10620.890  0.500  1.191367  85.595381  136.569393  41.490565
  10624.012  10624.010  0.500  1.191235  85.602945  136.617797  41.510721
  10627.165  10627.150  0.500  1.191036  85.524629  136.511813  41.486796
  10630.300  10630.300  0.500  1.190427  85.480368  136.472217  41.500013
  10633.491  10633.480  0.500  1.189941  85.417473  136.387643  41.494457
  10636.670  10636.670  0.500  1.189796  85.347556  136.313688  41.477995
  10639.924  10639.890  0.500  1.189850  85.281462  136.230279  41.450377
  10643.135  10643.120  0.500  1.189818  84.632571  135.218297  41.143770
  10646.383  10646.370  0.500  1.189455  85.195808  136.153012  41.443226
  10649.658  10649.650  0.500  1.188850  85.122719  136.061712  41.440499
  10652.940  10652.940  0.500  1.187963  85.063726  135.993784  41.456571
  10656.272  10656.250  0.500  1.186598  85.016840  135.932618  41.494501
  10659.583  10659.570  0.500  1.184828  84.911372  135.803418  41.528515
  10662.935  10662.920  0.500  1.182518  84.574499  135.304882  41.471751
  10666.309  10666.290  0.500  1.179697  84.834744  135.735852  41.721365
  10669.709  10669.670  0.500  1.176657  84.775678  135.651790  41.822481
  10673.107  10673.080  0.500  1.173851  84.687751  135.537405  41.904656
  10676.532  10676.500  0.500  1.171273  84.598441  135.436347  41.981488
  10679.984  10679.950  0.500  1.169112  84.410837  135.180601  41.992843
  10683.443  10683.410  0.500  1.167550  84.505379  135.331080  42.105308
  10686.905  10686.890  0.500  1.166732  84.436198  135.242210  42.112111
  10690.408  10690.390  0.500  1.166204  84.366131  135.162826  42.109601
  10693.943  10693.910  0.500  1.165623  84.303998  135.087944  42.110744
  10697.461  10697.450  0.500  1.165230  84.113621  134.807566  42.039853
  10701.036  10701.000  0.500  1.164617  84.182260  134.947204  42.109225
  10704.604  10704.580  0.500  1.164158  84.116323  134.874048  42.105721
  10708.208  10708.180  0.500  1.163589  84.043413  134.780548  42.100472
  10711.815  10711.790  0.500  1.162824  83.985420  134.710160  42.110681
  10715.445  10715.420  0.500  1.161718  83.923422  134.624691  42.130529
  10719.102  10719.080  0.500  1.160808  83.844452  134.545734  42.144142
  10722.766  10722.750  0.500  1.159708  83.763061  134.442275  42.158108
  10726.463  10726.440  0.500  1.158636  83.699224  134.358482  42.177012
  10730.168  10730.150  0.500  1.157347  83.630556  134.285598  42.208514
  10733.905  10733.880  0.500  1.155830  83.558216  134.196642  42.244582
  10737.650  10737.620  0.500  1.153931  83.471305  134.084838  42.289615
  10741.422  10741.390  0.500  1.151943  83.272098  133.784076  42.278744
  10745.197  10745.180  0.500  1.150048  83.334022  133.901110  42.395975
  10749.000  10748.980  0.500  1.148153  83.276135  133.833731  42.455010
  10752.826  10752.810  0.500  1.146404  83.199327  133.749416  42.502567
  10756.670  10756.650  0.500  1.144881  83.127234  133.659831  42.538824
  10760.531  10760.510  0.500  1.143572  83.053211  133.576951  42.568127
  10764.436  10764.390  0.500  1.142365  82.981682  133.488862  42.591443
  10768.328  10768.290  0.500  1.141219  82.912916  133.404308  42.613278
  10772.238  10772.210  0.500  1.140482  82.835829  133.310911  42.614817
  10776.177  10776.150  0.500  1.139820  82.759890  133.213447  42.611860
  10780.128  10780.110  0.500  1.139275  82.681228  133.118027  42.604560
  10784.128  10784.080  0.500  1.138814  82.591991  132.994260  42.584559
  10788.110  10788.080  0.500  1.138162  82.379841  132.686623  42.513769
  10792.111  10792.090  0.500  1.137346  82.457660  132.827668  42.593698
  10796.155  10796.130  0.500  1.136143  82.374855  132.731520  42.614129
  10800.197  10800.180  0.500  1.134834  82.197546  132.478455  42.588556
  10804.273  10804.250  0.500  1.133372  82.218096  132.539108  42.670430
  10808.372  10808.340  0.500  1.132042  81.311698  131.092391  42.260819
  10812.469  10812.450  0.500  1.130770  82.080575  132.366171  42.725775
  10816.605  10816.580  0.500  1.129234  82.029636  132.328322  42.779191
  10820.739  10820.730  0.500  1.127620  81.934504  132.185743  42.802135
  10824.927  10824.890  0.500  1.125792  81.849851  132.102645  42.853510
  10829.093  10829.080  0.500  1.124016  81.635776  131.772977  42.822559
  10833.323  10833.280  0.500  1.122293  81.702069  131.925457  42.946024
  10837.531  10837.510  0.500  1.120646  81.841653  132.173670  43.097754
  10841.784  10841.750  0.500  1.119028  81.772275  132.080363  43.137062
  10846.044  10846.010  0.500  1.117660  81.678054  131.963366  43.157853
  10850.344  10850.290  0.500  1.116306  81.626372  131.913521  43.199985
  10854.566  10854.590  0.500  1.114925  81.264051  131.339473  43.071453
  10858.903  10858.910  0.500  1.113620  81.477986  131.716590  43.251510
  10863.250  10863.250  0.500  1.112301  81.423826  131.661757  43.290594
  10867.630  10867.610  0.500  1.111242  81.204202  131.342987  43.231518
  10872.009  10871.990  0.500  1.110132  81.255522  131.452768  43.315733
  10876.412  10876.380  0.500  1.109140  81.020418  131.095071  43.240743
  10880.834  10880.800  0.500  1.108155  81.082698  131.235803  43.329808
  10885.255  10885.230  0.500  1.107032  80.993127  131.112370  43.337670
  10889.695  10889.680  0.500  1.105800  80.902561  131.008624  43.356784
  10894.169  10894.150  0.500  1.104377  80.829782  130.910697  43.386064
  10898.668  10898.640  0.500  1.102946  80.741425  130.812055  43.415467
  10903.165  10903.150  0.500  1.101394  80.662271  130.705025  43.447311
  10907.702  10907.680  0.500  1.099946  80.579084  130.607358  43.477761
  10912.248  10912.230  0.500  1.098438  80.487954  130.484071  43.502277
  10916.829  10916.800  0.500  1.096931  80.330422  130.259392  43.492877
  10921.404  10921.380  0.500  1.095431  80.315526  130.257560  43.557551
  10926.009  10925.990  0.500  1.094015  80.224676  130.141950  43.580559
  10930.633  10930.610  0.500  1.092433  80.147100  130.034955  43.613660
  10935.302  10935.260  0.500  1.091123  80.052464  129.931040  43.635945
  10939.950  10939.920  0.500  1.089892  79.968225  129.839618  43.658941
  10944.633  10944.600  0.500  1.088688  79.882708  129.728879  43.674261
  10949.319  10949.300  0.500  1.087362  79.783117  129.581278  43.682428
  10954.036  10954.020  0.500  1.086071  79.699906  129.479413  43.704480
  10958.794  10958.760  0.500  1.084832  79.616409  129.385362  43.726883
  10963.535  10963.510  0.500  1.083517  79.529064  129.266542  43.744202
  10968.312  10968.290  0.500  1.082289  79.437510  129.151148  43.758870
  10973.108  10973.090  0.500  1.080977  79.347461  129.044871  43.780278
  10977.930  10977.900  0.500  1.079638  79.261404  128.927928  43.799207
  10982.766  10982.730  0.500  1.078299  79.169005  128.806125  43.816438
  10987.633  10987.590  0.500  1.076990  79.080011  128.698721  43.837267
  10992.488  10992.460  0.500  1.075597  78.991002  128.581982  43.858534
  10997.375  10997.350  0.500  1.074341  78.897792  128.460881  43.872322
  11002.286  11002.260  0.500  1.072877  78.802977  128.340745  43.895517
  11007.218  11007.190  0.500  1.071475  78.720625  128.240999  43.922905
  11012.160  11012.130  0.500  1.070076  78.620640  128.102629  43.936960
  11017.122  11017.100  0.500  1.068644  78.519442  127.967888  43.953647
  11022.125  11022.090  0.500  1.067082  78.430631  127.851519  43.982335
  11027.123  11027.090  0.500  1.065541  78.334471  127.734099  44.009692
  11032.156  11032.120  0.500  1.063990  78.239962  127.608600  44.034675
  11037.190  11037.160  0.500  1.062512  78.139219  127.474943  44.053630
  11042.259  11042.220  0.500  1.061015  78.043916  127.360990  44.080180
  11047.328  11047.300  0.500  1.059581  77.943801  127.236085  44.100162
  11052.434  11052.400  0.500  1.058154  77.849343  127.101658  44.116480
  11057.555  11057.520  0.500  1.056831  77.757313  126.977184  44.131620
  11062.697  11062.660  0.500  1.055547  77.652611  126.838903  44.140183
  11067.854  11067.820  0.500  1.054190  77.561420  126.722567  44.159577
  11073.038  11073.000  0.500  1.052870  77.462516  126.593760  44.172986
  11078.205  11078.190  0.500  1.051472  77.354697  126.460100  44.188076
  11083.441  11083.410  0.500  1.050010  77.269989  126.341219  44.211139
  11088.660  11088.640  0.500  1.048567  77.170626  126.213096  44.230062
  11093.928  11093.890  0.500  1.047174  77.075220  126.093032  44.249566
  11099.190  11099.160  0.500  1.045837  76.940138  125.896753  44.239805
  11104.484  11104.450  0.500  1.044429  76.822802  125.735374  44.245354
  11109.793  11109.760  0.500  1.043005  76.774852  125.687759  44.291642
  11115.108  11115.090  0.500  1.041665  76.681037  125.560328  44.306047
  11120.460  11120.440  0.500  1.040310  76.554028  125.396493  44.308234
  11125.828  11125.810  0.500  1.038933  76.478966  125.311804  44.339309
  11131.207  11131.190  0.500  1.037466  76.382431  125.180310  44.357841
  11136.612  11136.600  0.500  1.035970  76.278865  125.047478  44.377115
  11142.040  11142.020  0.500  1.034533  76.175765  124.896390  44.387226
  11147.494  11147.470  0.500  1.033116  76.072250  124.765036  44.403429
  11152.942  11152.930  0.500  1.031682  75.973806  124.637033  44.421504
  11158.418  11158.410  0.500  1.030308  75.871032  124.506912  44.436135
  11163.916  11163.910  0.500  1.028935  75.770367  124.368475  44.447714
  11169.446  11169.430  0.500  1.027387  75.668987  124.219821  44.463363
  11174.981  11174.970  0.500  1.026006  75.559962  124.079287  44.474456
  11180.555  11180.520  0.500  1.024604  75.457244  123.946565  44.489210
  11186.107  11186.100  0.500  1.023175  75.353845  123.806462  44.502446
  11191.725  11191.700  0.500  1.021750  75.241279  123.647466  44.508684
  11197.316  11197.310  0.500  1.020318  75.141250  123.513048  44.524039
  11202.961  11202.950  0.500  1.018835  75.037656  123.367372  44.537495
  11208.618  11208.600  0.500  1.017504  74.932801  123.234031  44.548624
  11214.297  11214.270  0.500  1.016017  74.818059  123.087002  44.561694
  11219.982  11219.960  0.500  1.014572  74.701343  122.937342  44.571848
