# XDI/1.0 BlueSky/1.5.3
# Beamline.name: 6BM
# Beamline.xray_source: NSLS-II three-pole wiggler
# Beamline.collimation: paraboloid mirror, 5 nm Rh on 30 nm Pt
# Beamline.focusing: not in use
# Beamline.harmonic_rejection: flat mirror, Pt stripe, pitch = 7.0 mrad relative to beam
# Detector.i0: 10 cm N2
# Detector.I1: 25 cm N2
# Detector.I2: 25 cm N2
# Element.symbol: Ta
# Element.edge: L3
# Facility.name: NSLS-II
# Facility.energy: 3.0
# Facility.current: 400.3
# Facility.mode: top-off
# Facility.GUP: 305832
# Facility.SAF: 305669
# Facility.cycle: 2020-1
# Mono.name: Si(111)
# Mono.d_spacing: 3.1353241
# Mono.encoder_resolution: 0.0000050 deg/ct
# Mono.angle_offset: 16.0581090 deg
# Mono.scan_mode: fixed exit
# Mono.scan_type: step
# Mono.direction: forward in energy
# Sample.name: Ta
# Sample.prep: X
# Sample.x_position: -7.603 mm
# Sample.y_position: 102.894 mm
# Scan.experimenters: Neil Hyatt, Martin Stennett, Dan Austin, Seb Lawson
# Scan.edge_energy: 9881.1
# Scan.start_time: 2020-03-07T06:14:15
# Scan.end_time: 2020-03-07T06:25:44
# Scan.transient_id: 23472
# Scan.uid: ed6ccb2b-2857-4f87-977c-896b4366f4f0
# Scan.plot_hint: ln(i0/itrans)  --  ln($5/$6)
# Column.1: energy eV
# Column.2: requested_energy eV
# Column.3: measurement_time seconds
# Column.4: mutrans 
# Column.5: i0
# Column.6: itrans
# Column.7: irefer
# ///////////
# 
# -----------
#  energy  requested_energy  measurement_time  mutrans  i0  itrans  irefer
9681.091  9681.100  1.000  0.490438  113.422033  69.454909  16.929450
9691.189  9691.100  1.000  0.486928  113.153935  69.534386  17.173559
9701.166  9701.100  1.000  0.483388  112.814466  69.571596  16.035651
9711.168  9711.100  1.000  0.479819  112.518511  69.637206  16.767557
9721.134  9721.100  1.000  0.476502  112.239172  69.695105  16.599116
9731.141  9731.100  1.000  0.473016  111.923026  69.741471  16.485202
9741.141  9741.100  1.000  0.469621  111.616157  69.786769  16.132907
9751.137  9751.100  1.000  0.466271  111.300149  69.822764  16.894869
9761.134  9761.100  1.000  0.463122  110.998383  69.853061  17.287735
9771.122  9771.100  1.000  0.460009  110.606314  69.823296  17.022810
9781.115  9781.100  1.000  0.456931  110.254405  69.815763  16.525587
9791.117  9791.100  1.000  0.454082  108.569375  68.944892  16.377349
9801.110  9801.100  1.000  0.451590  109.676176  69.821545  16.789034
9811.103  9811.100  1.000  0.449493  109.449478  69.823429  17.182884
9821.113  9821.100  1.000  0.448147  108.622495  69.389244  17.438350
9831.119  9831.100  1.000  0.448261  108.756507  69.466932  17.197050
9841.020  9841.100  1.000  0.451523  108.407840  69.018720  17.024665
9851.088  9851.100  1.000  0.460997  108.083757  68.163531  16.782185
9853.086  9853.100  1.000  0.464609  108.006270  67.869037  16.697745
9855.084  9855.100  1.000  0.469136  107.941693  67.522141  16.603831
9857.084  9857.100  1.000  0.474939  107.859356  67.080198  16.486152
9859.084  9859.100  1.000  0.482585  107.796325  66.530362  16.350986
9861.081  9861.100  1.000  0.492432  107.737399  65.842426  16.182242
9863.074  9863.100  1.000  0.505910  107.677484  64.924876  15.971027
9865.081  9865.100  1.000  0.524361  107.605746  63.695454  15.684960
9867.076  9867.100  1.000  0.551311  107.532065  61.959321  15.277761
9869.089  9869.100  1.000  0.591665  107.486445  59.483542  14.696913
9871.081  9871.100  1.000  0.657178  107.420423  55.677289  13.795140
9871.313  9871.350  1.000  0.667803  107.389027  55.072740  13.652198
9871.557  9871.600  1.000  0.679555  107.383373  54.426477  13.499265
9871.810  9871.850  1.000  0.692660  107.380738  53.716536  13.329023
9872.080  9872.100  1.000  0.707066  107.378641  52.947192  13.141536
9872.324  9872.350  1.000  0.721790  107.360014  52.164287  12.953381
9872.581  9872.600  1.000  0.738268  107.357514  51.310569  12.747603
9872.839  9872.850  1.000  0.755797  107.364004  50.421999  12.533262
9873.075  9873.100  1.000  0.774267  107.337239  49.486941  12.307164
9873.336  9873.350  1.000  0.796165  107.333095  48.413174  12.046977
9873.593  9873.600  1.000  0.819448  107.351840  47.307253  11.780052
9873.833  9873.850  1.000  0.844041  107.341431  46.153558  11.495748
9874.095  9874.100  1.000  0.872795  107.333310  44.841950  11.176651
9874.343  9874.350  1.000  0.904526  107.316280  43.434500  10.833833
9874.584  9874.600  1.000  0.937465  107.294823  42.018725  10.487291
9874.849  9874.850  1.000  0.978140  107.303145  40.347049  10.077747
9875.098  9875.100  1.000  1.020476  107.297452  38.672501  9.667909
9875.343  9875.350  1.000  1.066974  107.280150  36.909518  9.231161
9875.600  9875.600  1.000  1.122306  107.278596  34.922211  8.740719
9875.845  9875.850  1.000  1.179405  107.271434  32.981860  8.262837
9876.094  9876.100  1.000  1.245393  107.252752  30.870315  7.740865
9876.355  9876.350  1.000  1.318761  107.231547  28.680850  7.196654
9876.595  9876.600  1.000  1.395924  107.218925  26.547843  6.668261
9876.844  9876.850  1.000  1.478201  107.589930  24.535634  6.167229
9877.097  9877.100  1.000  1.570886  107.570378  22.359683  5.624176
9877.342  9877.350  1.000  1.666957  107.540300  20.305847  5.112287
9877.587  9877.600  1.000  1.769980  107.494554  18.310231  4.613874
9877.848  9877.850  1.000  1.887771  107.433502  16.266386  4.102986
9878.093  9878.100  1.000  2.003402  107.339457  14.477478  3.656653
9878.338  9878.350  1.000  2.127787  107.104763  12.756237  3.225100
9878.604  9878.600  1.000  2.265545  106.712929  11.073974  2.800758
9878.836  9878.850  1.000  2.397132  106.239251  9.665491  2.447165
9879.085  9879.100  1.000  2.539771  105.706698  8.338615  2.113500
9879.347  9879.350  1.000  2.692540  105.277269  7.128193  1.808704
9879.596  9879.600  1.000  2.837603  105.037720  6.151626  1.561901
9879.840  9879.850  1.000  2.987881  104.935968  5.288153  1.344457
9880.102  9880.100  1.000  3.140016  104.953377  4.542601  1.156141
9880.347  9880.350  1.000  3.271155  105.111771  3.990312  1.016303
9880.600  9880.600  1.000  3.395596  105.463349  3.535192  0.901029
9880.853  9880.850  1.000  3.504426  105.941942  3.185041  0.811442
9881.098  9881.100  1.000  3.587720  106.391009  2.942916  0.750283
9881.356  9881.350  1.000  3.651947  106.733132  2.768719  0.705251
9881.605  9881.600  1.000  3.692953  106.929230  2.662364  0.678559
9881.846  9881.850  1.000  3.708588  107.048239  2.623979  0.668105
9882.103  9882.100  1.000  3.701662  107.098392  2.643453  0.673844
9882.361  9882.350  1.000  3.670050  107.140363  2.729422  0.693763
9882.602  9882.600  1.000  3.623647  107.172871  2.859926  0.727217
9882.855  9882.850  1.000  3.558276  107.170770  3.053071  0.775959
9883.104  9883.100  1.000  3.481171  107.181688  3.298127  0.837836
9883.345  9883.350  1.000  3.399636  107.198480  3.578866  0.907543
9883.603  9883.600  1.000  3.305495  107.194407  3.932005  0.997377
9883.856  9883.850  1.000  3.213040  107.164633  4.311675  1.093699
9884.101  9884.100  1.000  3.125447  107.176426  4.706898  1.193452
9884.346  9884.350  1.000  3.037040  107.162876  5.141320  1.303830
9884.608  9884.600  1.000  2.950353  107.138996  5.605646  1.422609
9884.845  9884.850  1.000  2.873946  107.128116  6.050129  1.535834
9885.098  9885.100  1.000  2.799593  107.145398  6.518174  1.655376
9885.356  9885.350  1.000  2.729260  107.147512  6.993255  1.777473
9885.597  9885.600  1.000  2.666475  107.131779  7.445311  1.892506
9885.851  9885.850  1.000  2.606652  107.109741  7.902682  2.009489
9886.100  9886.100  1.000  2.552587  107.111808  8.341859  2.123056
9886.337  9886.350  1.000  2.504105  107.103968  8.755612  2.227743
9886.594  9886.600  1.000  2.454973  107.083438  9.194778  2.340755
9886.848  9886.850  1.000  2.411408  107.030831  9.599483  2.445776
9887.102  9887.100  1.000  2.372662  107.004760  9.976287  2.542871
9887.343  9887.350  1.000  2.337915  106.996183  10.328198  2.633596
9887.588  9887.600  1.000  2.305735  107.015658  10.667908  2.720900
9887.833  9887.850  1.000  2.278183  107.006185  10.964944  2.797419
9888.095  9888.100  1.000  2.250188  106.984601  11.273980  2.878830
9888.353  9888.350  1.000  2.226625  106.965266  11.540693  2.947359
9888.594  9888.600  1.000  2.206228  106.965922  11.778575  3.008834
9888.856  9888.850  1.000  2.186300  106.935281  12.012213  3.070417
9889.102  9889.100  1.000  2.169192  106.904060  12.215912  3.122485
9889.347  9889.350  1.000  2.152934  106.893316  12.414898  3.173459
9889.613  9889.600  1.000  2.137212  106.901511  12.612593  3.224613
9889.855  9889.850  1.000  2.123258  106.877555  12.786963  3.271443
9890.100  9890.100  1.000  2.109885  106.857962  12.956726  3.314898
9890.358  9890.350  1.000  2.096033  106.843762  13.135709  3.361148
9890.607  9890.600  1.000  2.083716  106.842045  13.298294  3.403780
9890.849  9890.850  1.000  2.071359  106.837477  13.463068  3.446979
9891.111  9891.100  1.000  2.058023  106.828085  13.642609  3.493630
9891.352  9891.350  1.000  2.045801  106.820503  13.809394  3.535181
9891.602  9891.600  1.000  2.033118  106.801643  13.983185  3.581326
9891.860  9891.850  1.000  2.019869  106.825099  14.172786  3.630359
9892.105  9892.100  1.000  2.007306  106.819699  14.351235  3.677134
9892.351  9892.350  1.000  1.993994  106.815935  14.543054  3.725247
9892.605  9892.600  1.000  1.980213  106.783025  14.740306  3.777120
9892.854  9892.850  1.000  1.967033  106.776369  14.934950  3.829024
9893.096  9893.100  1.000  1.954308  106.767898  15.125002  3.877356
9893.354  9893.350  1.000  1.940974  106.747762  15.325135  3.929894
9893.599  9893.600  1.000  1.928147  106.724429  15.519584  3.979504
9893.845  9893.850  1.000  1.915653  106.732251  15.715860  4.029262
9894.103  9894.100  1.000  1.902897  106.707275  15.913893  4.080239
9894.344  9894.350  1.000  1.891118  106.702351  16.101712  4.129056
9894.590  9894.600  1.000  1.879258  106.677819  16.290057  4.177813
9894.857  9894.850  1.000  1.867260  106.674024  16.486101  4.228704
9895.090  9895.100  1.000  1.856304  106.648317  16.663697  4.274168
9895.339  9895.350  1.000  1.845572  106.587183  16.833837  4.317244
9895.602  9895.600  1.000  1.834599  106.573272  17.017363  4.365322
9895.839  9895.850  1.000  1.825022  106.578760  17.181997  4.406921
9896.093  9896.100  1.000  1.815425  106.623806  17.355015  4.451968
9896.356  9896.350  1.000  1.806109  106.593293  17.512450  4.492133
9896.593  9896.600  1.000  1.797997  106.552899  17.648397  4.527622
9896.847  9896.850  1.000  1.789972  106.587990  17.796440  4.564828
9897.106  9897.100  1.000  1.782328  106.595838  17.934332  4.601099
9897.351  9897.350  1.000  1.775990  106.583413  18.046242  4.629922
9897.605  9897.600  1.000  1.769472  106.596252  18.166448  4.659986
9897.851  9897.850  1.000  1.763563  106.587420  18.272594  4.687169
9898.101  9898.100  1.000  1.757744  106.540674  18.371169  4.712603
9898.360  9898.350  1.000  1.752184  106.508416  18.468013  4.738717
9898.614  9898.600  1.000  1.746497  106.474194  18.567363  4.762814
9898.855  9898.850  1.000  1.740880  106.460293  18.669518  4.787738
9899.105  9899.100  1.000  1.735355  106.463538  18.773532  4.814730
9899.360  9899.350  1.000  1.729681  106.747778  18.930748  4.853146
9899.593  9899.600  1.000  1.724298  106.762381  19.035546  4.881799
9899.856  9899.850  1.000  1.718366  106.734051  19.143719  4.909743
9900.106  9900.100  1.000  1.712685  106.735735  19.253072  4.934913
9900.351  9900.350  1.000  1.707318  106.710051  19.352040  4.960264
9900.602  9900.600  1.000  1.702260  106.708164  19.449815  4.985037
9900.856  9900.850  1.000  1.696830  106.678926  19.550358  5.010567
9901.093  9901.100  1.000  1.692173  106.660918  19.638306  5.034212
9901.352  9901.350  1.000  1.687589  106.641954  19.725030  5.054809
9901.606  9901.600  1.000  1.683446  106.624158  19.803601  5.075282
9901.852  9901.850  1.000  1.679646  106.609656  19.876308  5.092637
9902.107  9902.100  1.000  1.676200  106.597826  19.942694  5.109274
9902.348  9902.350  1.000  1.673130  106.562715  19.997423  5.123350
9902.586  9902.600  1.000  1.670640  106.572358  20.049101  5.136098
9902.849  9902.850  1.000  1.668035  106.587062  20.104177  5.150256
9903.099  9903.100  1.000  1.665920  106.570728  20.143643  5.160617
9903.337  9903.350  1.000  1.664320  106.535149  20.169165  5.167405
9903.591  9903.600  1.000  1.662665  106.499194  20.195765  5.171808
9903.837  9903.850  1.000  1.661349  106.485738  20.219787  5.177834
9904.083  9904.100  1.000  1.660257  106.462534  20.237477  5.183911
9904.355  9904.350  1.000  1.659133  106.440389  20.256028  5.187627
9904.605  9904.600  1.000  1.658321  106.463906  20.276957  5.191335
9904.843  9904.850  1.000  1.657579  106.459859  20.291235  5.193453
9905.110  9905.100  1.000  1.656692  106.436783  20.304841  5.195688
9905.347  9905.350  1.000  1.655945  106.440281  20.320683  5.201388
9905.602  9905.600  1.000  1.655011  106.399644  20.331909  5.202293
9905.861  9905.850  1.000  1.653995  106.370702  20.347042  5.206056
9906.099  9906.100  1.000  1.652822  106.368736  20.370544  5.210814
9906.353  9906.350  1.000  1.651747  106.336414  20.386260  5.215692
9906.616  9906.600  1.000  1.650108  106.337368  20.419871  5.225771
9906.850  9906.850  1.000  1.648641  106.347189  20.451748  5.230709
9907.105  9907.100  1.000  1.646829  106.352046  20.489778  5.240181
9907.355  9907.350  1.000  1.645064  106.334156  20.522522  5.249760
9907.597  9907.600  1.000  1.643206  106.293403  20.552796  5.256363
9907.856  9907.850  1.000  1.641109  106.269470  20.591313  5.263981
9908.102  9908.100  1.000  1.639373  106.282744  20.629667  5.274469
9908.361  9908.350  1.000  1.637202  106.238191  20.665831  5.283144
9908.595  9908.600  1.000  1.635571  106.241154  20.700149  5.290982
9908.845  9908.850  1.000  1.633794  106.245063  20.737718  5.300774
9909.087  9909.100  1.000  1.632231  106.219300  20.765133  5.307429
9909.346  9909.350  1.000  1.630801  106.193392  20.789770  5.313025
9909.593  9909.600  1.000  1.629476  106.182456  20.815190  5.320321
9909.852  9909.850  1.000  1.628509  106.171835  20.833249  5.325076
9910.090  9910.100  1.000  1.627726  106.155509  20.846344  5.328380
9910.349  9910.350  1.000  1.627077  106.154904  20.859762  5.332871
9910.591  9910.600  1.000  1.626690  106.132360  20.863411  5.334317
9910.846  9910.850  1.000  1.626497  106.132936  20.867557  5.333647
9911.096  9911.100  1.000  1.626253  106.164944  20.878934  5.336466
9912.201  9912.180  1.000  1.626957  106.121597  20.855728  5.329069
9913.310  9913.280  1.000  1.628009  106.072138  20.824092  5.320514
9914.420  9914.390  1.000  1.627828  106.042523  20.822047  5.321940
9915.551  9915.530  1.000  1.623998  106.004055  20.894355  5.340183
9916.695  9916.680  1.000  1.616224  105.949607  21.046615  5.378891
9917.877  9917.860  1.000  1.604642  105.915137  21.284853  5.440318
9919.077  9919.050  1.000  1.591795  105.839788  21.544739  5.508648
9920.277  9920.260  1.000  1.580211  105.770374  21.781461  5.569475
9921.503  9921.490  1.000  1.572886  105.712922  21.929685  5.608274
9922.751  9922.740  1.000  1.572154  105.665769  21.935961  5.613210
9924.024  9924.010  1.000  1.577328  105.602490  21.809683  5.583320
9925.311  9925.300  1.000  1.586837  105.529822  21.588415  5.527539
9926.619  9926.610  1.000  1.598164  105.447435  21.328586  5.461807
9927.936  9927.930  1.000  1.609137  105.375663  21.081485  5.400130
9929.283  9929.280  1.000  1.619113  105.212879  20.839977  5.339024
9930.652  9930.640  1.000  1.627141  103.469492  20.330776  5.212688
9932.047  9932.030  1.000  1.631254  103.567251  20.266450  5.191573
9933.447  9933.430  1.000  1.631534  105.206481  20.581456  5.276969
9934.860  9934.850  1.000  1.628530  105.176715  20.637551  5.293761
9936.307  9936.290  1.000  1.624220  105.140385  20.719520  5.316776
9937.755  9937.750  1.000  1.620054  105.113076  20.800620  5.341323
9939.246  9939.230  1.000  1.616052  105.061101  20.873693  5.362166
9940.759  9940.730  1.000  1.612539  105.006433  20.936250  5.383247
9942.251  9942.240  1.000  1.609700  104.959333  20.986364  5.398457
9943.791  9943.780  1.000  1.608160  104.880707  21.002968  5.406456
9945.348  9945.340  1.000  1.608402  104.784366  20.978584  5.403994
9946.935  9946.910  1.000  1.610915  104.739150  20.916913  5.392820
9948.515  9948.500  1.000  1.615555  104.708054  20.813900  5.371613
9950.125  9950.110  1.000  1.621369  104.632929  20.678391  5.341646
9951.761  9951.750  1.000  1.627037  104.532784  20.541844  5.311638
9953.419  9953.400  1.000  1.630746  104.413502  20.442443  5.293578
9955.086  9955.070  1.000  1.631184  103.957616  20.344273  5.274436
9956.750  9956.750  1.000  1.626546  101.807402  20.016107  5.195979
9958.466  9958.460  1.000  1.618002  104.052607  20.633066  5.365236
9960.212  9960.190  1.000  1.607001  104.188993  20.888641  5.440584
9961.950  9961.930  1.000  1.596590  104.126676  21.094626  5.503151
9963.711  9963.700  1.000  1.588773  104.061088  21.246767  5.554009
9965.485  9965.480  1.000  1.584270  103.965224  21.323002  5.585185
9967.298  9967.280  1.000  1.583375  103.766825  21.301359  5.589735
9969.112  9969.100  1.000  1.585423  101.944277  20.884421  5.491511
9970.952  9970.940  1.000  1.587919  102.899244  21.027504  5.534818
9972.811  9972.800  1.000  1.590348  103.868874  21.174159  5.582998
9974.700  9974.680  1.000  1.590956  103.899126  21.167447  5.584693
9976.598  9976.580  1.000  1.590854  104.118601  21.214327  5.602977
9978.506  9978.500  1.000  1.590935  104.055082  21.199673  5.604487
9980.445  9980.430  1.000  1.591989  103.960803  21.158141  5.596451
9982.410  9982.390  1.000  1.594610  103.238805  20.956197  5.547606
9984.359  9984.360  1.000  1.597923  100.279642  20.288196  5.373758
9986.365  9986.360  1.000  1.601983  103.627468  20.880587  5.535990
9988.393  9988.370  1.000  1.605718  103.606456  20.798514  5.518719
9990.414  9990.400  1.000  1.610020  103.523383  20.692634  5.495673
9992.461  9992.450  1.000  1.614317  103.408489  20.581038  5.470560
9994.531  9994.520  1.000  1.618502  103.177739  20.449341  5.438975
9996.623  9996.610  1.000  1.622436  100.602394  19.860652  5.283802
9998.724  9998.710  1.000  1.625270  103.204940  20.316762  5.406590
10000.848  10000.840  1.000  1.626356  103.251306  20.303830  5.406313
10003.013  10002.990  1.000  1.625294  103.124632  20.300485  5.407503
10005.165  10005.150  1.000  1.622977  103.007231  20.324408  5.415843
10007.331  10007.330  1.000  1.618999  102.893683  20.382926  5.434700
10009.558  10009.540  1.000  1.611515  102.165196  20.390649  5.440665
10011.774  10011.760  1.000  1.600812  100.868290  20.348434  5.432411
10014.017  10014.000  1.000  1.588995  102.555130  20.934647  5.591950
10016.273  10016.260  1.000  1.579393  102.519333  21.129261  5.648045
10018.557  10018.540  1.000  1.572817  102.435141  21.251184  5.683449
10020.842  10020.840  1.000  1.568935  102.365760  21.319390  5.702857
10023.167  10023.150  1.000  1.567008  102.296875  21.346139  5.714783
10025.511  10025.490  1.000  1.566329  102.176321  21.335468  5.715933
10027.847  10027.840  1.000  1.566967  102.043723  21.294186  5.707838
10030.227  10030.220  1.000  1.567404  101.929523  21.261067  5.703305
10032.622  10032.610  1.000  1.567262  101.806293  21.238377  5.702305
10035.027  10035.020  1.000  1.567251  101.485440  21.171685  5.691863
10037.459  10037.450  1.000  1.567651  99.893155  20.831162  5.603696
10039.923  10039.900  1.000  1.568417  101.593240  21.169463  5.703694
10042.379  10042.370  1.000  1.569385  101.495645  21.128671  5.700167
10044.880  10044.860  1.000  1.570337  101.391119  21.086820  5.695884
10047.374  10047.370  1.000  1.573298  101.281498  21.001754  5.683049
10049.899  10049.890  1.000  1.579965  101.207612  20.846981  5.650602
10052.461  10052.440  1.000  1.590807  101.125642  20.605479  5.593530
10055.007  10055.000  1.000  1.602922  101.008471  20.333762  5.529657
10057.611  10057.590  1.000  1.614516  100.914280  20.080626  5.468725
10060.207  10060.190  1.000  1.622701  100.812076  19.896766  5.429854
10062.818  10062.810  1.000  1.624116  100.680380  19.842675  5.421529
10065.466  10065.450  1.000  1.616646  100.581472  19.971811  5.462913
10068.128  10068.110  1.000  1.600367  100.484128  20.279942  5.554833
10070.796  10070.790  1.000  1.577899  100.395945  20.722564  5.685218
10073.500  10073.490  1.000  1.556783  100.282825  21.140932  5.803534
10076.220  10076.210  1.000  1.543599  100.172802  21.398009  5.880816
10078.958  10078.940  1.000  1.538299  100.086677  21.493212  5.915103
10081.715  10081.700  1.000  1.538004  99.995565  21.479989  5.918400
10084.483  10084.470  1.000  1.539978  99.883886  21.413687  5.906980
10087.283  10087.270  1.000  1.541372  99.736785  21.352363  5.897980
10090.098  10090.080  1.000  1.541551  97.549739  20.880400  5.777584
10092.936  10092.910  1.000  1.541442  99.211203  21.238364  5.878568
10095.772  10095.760  1.000  1.542674  99.299205  21.231015  5.882587
10098.636  10098.630  1.000  1.546097  99.218682  21.141328  5.866493
10101.537  10101.520  1.000  1.550745  99.112935  21.020844  5.839880
10104.439  10104.420  1.000  1.553965  99.020972  20.933838  5.821233
10107.370  10107.350  1.000  1.554913  98.937973  20.896477  5.815305
10110.320  10110.300  1.000  1.554403  98.836432  20.885677  5.816405
10113.268  10113.260  1.000  1.554714  98.708764  20.852204  5.814074
10116.253  10116.240  1.000  1.556749  98.608920  20.788760  5.801224
10119.266  10119.250  1.000  1.559687  98.487048  20.702155  5.780976
10122.285  10122.270  1.000  1.562572  98.377864  20.619631  5.764215
10125.315  10125.310  1.000  1.564894  98.243586  20.543729  5.749215
10128.383  10128.370  1.000  1.565692  98.104007  20.498185  5.742205
10131.470  10131.450  1.000  1.564118  97.984665  20.505487  5.749704
10134.559  10134.550  1.000  1.559717  97.804237  20.558023  5.770003
10137.685  10137.660  1.000  1.552969  97.764513  20.688795  5.814505
10140.814  10140.800  1.000  1.544763  97.663581  20.837747  5.863051
10143.967  10143.950  1.000  1.536897  97.539513  20.975610  5.909302
10147.157  10147.130  1.000  1.530305  97.411678  21.086670  5.948330
10150.341  10150.320  1.000  1.524477  97.278937  21.181014  5.984148
10153.544  10153.530  1.000  1.519279  97.149730  21.263119  6.016998
10156.776  10156.760  1.000  1.515580  97.025169  21.314571  6.038897
10160.047  10160.020  1.000  1.514767  96.873966  21.298644  6.044160
10163.301  10163.280  1.000  1.515513  96.730394  21.251238  6.040632
10166.589  10166.570  1.000  1.516449  96.602316  21.203232  6.036236
10169.888  10169.880  1.000  1.518060  96.483417  21.143047  6.025827
10173.221  10173.210  1.000  1.520397  96.368851  21.068655  6.013106
10176.569  10176.550  1.000  1.522707  96.236813  20.991243  5.997975
10179.928  10179.920  1.000  1.525068  96.120373  20.916397  5.986037
10183.317  10183.300  1.000  1.526782  96.013806  20.857415  5.978558
10186.708  10186.700  1.000  1.527922  95.869475  20.802352  5.971286
10190.146  10190.130  1.000  1.527888  95.697048  20.765636  5.966531
10193.582  10193.570  1.000  1.526380  95.286201  20.707689  5.957992
10197.057  10197.030  1.000  1.523269  95.461625  20.810452  5.997183
10200.524  10200.500  1.000  1.519558  95.340025  20.861222  6.018042
10204.017  10204.000  1.000  1.515353  95.195872  20.917445  6.042955
10207.544  10207.520  1.000  1.511459  95.022523  20.960828  6.062591
10211.069  10211.060  1.000  1.508046  94.876718  21.000202  6.083685
10214.632  10214.610  1.000  1.504200  94.733885  21.049388  6.104843
10218.203  10218.190  1.000  1.500059  94.600772  21.107047  6.128818
10221.808  10221.780  1.000  1.495005  94.691615  21.234350  6.173446
10225.406  10225.390  1.000  1.490827  94.660185  21.316185  6.205663
10229.043  10229.020  1.000  1.487686  94.508094  21.348879  6.220707
10232.692  10232.670  1.000  1.486754  94.354422  21.334052  6.226661
10236.361  10236.340  1.000  1.486479  94.208419  21.306886  6.224870
10240.047  10240.030  1.000  1.485802  93.888050  21.248807  6.216867
10243.758  10243.740  1.000  1.484601  93.939887  21.286098  6.233486
10247.486  10247.460  1.000  1.483721  93.774282  21.267279  6.237651
10251.235  10251.210  1.000  1.483304  93.617606  21.240604  6.236565
10254.995  10254.970  1.000  1.483147  93.467623  21.209901  6.237655
10258.777  10258.760  1.000  1.482651  93.342041  21.191914  6.240218
10262.580  10262.560  1.000  1.481419  93.209105  21.187819  6.247052
10266.395  10266.380  1.000  1.479693  93.062575  21.191045  6.258043
10270.240  10270.220  1.000  1.478104  92.869152  21.180644  6.261396
10274.097  10274.080  1.000  1.477039  92.443340  21.105987  6.248985
10277.989  10277.960  1.000  1.476315  92.562955  21.148612  6.271170
10281.875  10281.860  1.000  1.475156  92.387254  21.132938  6.275029
10285.805  10285.780  1.000  1.472902  92.238080  21.146435  6.286500
10289.729  10289.710  1.000  1.470018  92.097440  21.175173  6.305807
10293.693  10293.670  1.000  1.466619  91.956488  21.214754  6.326596
10297.651  10297.640  1.000  1.462778  91.806407  21.261630  6.350748
10301.662  10301.640  1.000  1.458960  91.642748  21.304924  6.373436
10305.663  10305.650  1.000  1.455236  91.480281  21.346499  6.393152
10309.708  10309.680  1.000  1.451848  91.320673  21.381572  6.415445
10313.748  10313.730  1.000  1.448246  91.171485  21.423670  6.434915
10317.823  10317.800  1.000  1.445413  91.025280  21.449996  6.452840
10321.910  10321.890  1.000  1.442875  90.848098  21.462636  6.463930
10326.029  10326.000  1.000  1.440592  90.718944  21.481110  6.478409
10330.132  10330.120  1.000  1.438276  90.537576  21.487868  6.491846
10334.294  10334.270  1.000  1.436762  90.389720  21.485298  6.500329
10338.446  10338.430  1.000  1.436211  90.204194  21.453001  6.498463
10342.647  10342.620  1.000  1.435931  90.054491  21.423412  6.499672
10346.843  10346.820  1.000  1.435033  89.897523  21.405280  6.503511
10351.065  10351.040  1.000  1.433574  89.716815  21.393428  6.506552
10355.310  10355.280  1.000  1.432068  89.543542  21.384308  6.515542
10359.567  10359.540  1.000  1.430315  89.390267  21.385155  6.522941
10363.856  10363.820  1.000  1.428773  89.227532  21.379164  6.530033
10368.148  10368.120  1.000  1.427358  89.036223  21.363526  6.534970
10372.463  10372.440  1.000  1.426062  88.886578  21.355276  6.540337
10376.800  10376.770  1.000  1.423954  88.715506  21.359166  6.553577
10381.145  10381.130  1.000  1.421241  88.548642  21.376904  6.565903
10385.527  10385.500  1.000  1.418277  88.381064  21.399781  6.582519
10389.912  10389.900  1.000  1.415498  88.212577  21.418429  6.598741
10394.335  10394.310  1.000  1.413720  88.059590  21.419326  6.607600
10398.760  10398.740  1.000  1.411866  87.892402  21.418336  6.616884
10403.214  10403.190  1.000  1.409740  87.732463  21.424859  6.627282
10407.685  10407.660  1.000  1.406375  87.575560  21.458632  6.650736
10412.179  10412.150  1.000  1.401504  87.398847  21.519902  6.677440
10416.681  10416.660  1.000  1.396182  87.227988  21.592449  6.711092
10421.202  10421.180  1.000  1.391072  87.047962  21.658257  6.741662
10425.802  10425.730  1.000  1.387077  86.883113  21.703786  6.764845
10430.326  10430.290  1.000  1.383936  86.713894  21.729668  6.781560
10434.920  10434.880  1.000  1.381477  86.570867  21.747221  6.798971
10439.513  10439.480  1.000  1.379651  86.406739  21.745663  6.807325
10444.125  10444.100  1.000  1.378883  86.220125  21.715373  6.809454
10448.798  10448.740  1.000  1.378458  86.024183  21.675241  6.805905
10453.423  10453.400  1.000  1.378257  85.840703  21.633356  6.802674
10458.052  10458.080  1.000  1.378465  85.712676  21.596592  6.800881
10462.813  10462.780  1.000  1.378588  85.529440  21.547785  6.796522
10467.536  10467.500  1.000  1.377946  85.339009  21.513608  6.794913
10472.263  10472.230  1.000  1.376071  85.187844  21.515795  6.805711
10477.019  10476.990  1.000  1.373110  85.014412  21.535664  6.823143
10481.826  10481.760  1.000  1.369738  84.854135  21.567669  6.842530
10486.543  10486.560  1.000  1.366070  84.720100  21.612740  6.865818
10491.340  10491.370  1.000  1.362828  84.505668  21.628030  6.881393
10496.290  10496.200  1.000  1.360029  84.330679  21.643760  6.895996
10501.135  10501.050  1.000  1.357452  84.103826  21.641234  6.906217
10506.022  10505.920  1.000  1.354805  83.891784  21.643889  6.917879
10510.771  10510.810  1.000  1.351679  83.623800  21.642280  6.926425
10515.696  10515.720  1.000  1.348351  83.540324  21.692764  6.953658
10520.684  10520.640  1.000  1.344492  83.367690  21.731628  6.975056
10525.628  10525.590  1.000  1.339976  83.154312  21.774119  7.000125
10530.534  10530.550  1.000  1.335641  83.021608  21.833817  7.029840
10535.522  10535.540  1.000  1.331938  82.842937  21.867656  7.049129
10540.514  10540.540  1.000  1.329043  82.620782  21.872242  7.063435
10545.521  10545.560  1.000  1.326233  82.453703  21.889423  7.078654
10550.692  10550.600  1.000  1.323664  82.272486  21.897498  7.093819
10555.646  10555.660  1.000  1.322000  82.008845  21.863680  7.092546
10560.759  10560.740  1.000  1.320160  81.931116  21.883202  7.108630
10565.926  10565.840  1.000  1.318862  81.723585  21.856120  7.113290
10570.982  10570.960  1.000  1.317624  81.569536  21.841942  7.119484
10576.047  10576.090  1.000  1.316396  81.401489  21.823728  7.121293
10581.312  10581.250  1.000  1.315580  81.187366  21.784089  7.118893
10586.509  10586.420  1.000  1.314608  81.019558  21.760210  7.125374
10591.638  10591.620  1.000  1.313323  80.836231  21.738870  7.127411
10596.806  10596.830  1.000  1.311354  80.686374  21.741334  7.139632
10602.038  10602.060  1.000  1.308361  80.730280  21.818389  7.175435
10607.271  10607.310  1.000  1.304352  80.541777  21.854883  7.198457
10612.567  10612.580  1.000  1.300528  80.372906  21.892617  7.220533
10617.844  10617.870  1.000  1.296793  80.098646  21.899536  7.235531
10623.161  10623.180  1.000  1.293399  80.040406  21.958025  7.266107
