# XDI/1.0 BlueSky/1.10.0 BMM/2023-1.0-py310-tiled
# Beamline.name: BMM (06BM) -- Beamline for Materials Measurement (NIST)
# Beamline.xray_source: NSLS-II three-pole wiggler
# Beamline.collimation: paraboloid mirror, 5 nm Rh on 30 nm Pt
# Beamline.focusing: not in use
# Beamline.harmonic_rejection: flat mirror, Pt stripe, pitch = 7.0 mrad relative to beam
# Beamline.software: Bluesky 1.10.0, Ophyd 1.7.0, DataBroker 2.0.0b13, Python 3.10.8, 2023-1.0-py310-tiled
# Detector.I0: 10 cm N2
# Detector.I1: 25 cm N2
# Detector.I2: 25 cm N2
# Element.symbol: Ta
# Element.edge: L3
# Element.reference: Ta
# Element.reference_material: Ta2O5
# Facility.name: NSLS-II
# Facility.energy: 3.0
# Facility.current: 400.7
# Facility.mode: top-off
# Facility.GUP: 301027
# Facility.SAF: 310583
# Facility.cycle: 2023-2
# Mono.name: Si(111)
# Mono.d_spacing: 3.1351860
# Mono.encoder_resolution: 0.0000050 deg/ct
# Mono.angle_offset: 16.0754326 deg
# Mono.scan_mode: pseudo channel cut
# Mono.scan_type: step
# Mono.direction: forward in energy
# Sample.name: Ta2O5
# Sample.prep: PEG pellet
# Sample.x: 109.138 mm
# Sample.y: 153.150 mm
# Sample.SDD_position: 205.000 mm
# Scan.experimenters: Bruce Ravel
# Scan.edge_energy: 9881.1
# Scan.start_time: 2023-05-28T17:17:41
# Scan.end_time: 2023-05-28T17:26:06
# Scan.transient_id: 78868
# Scan.uid: 1d04acbc-6002-4840-94b4-21c7ac5369c5
# Scan.plot_hint: ln(It/Ir)  --  ln($6/$7)
# Column.1: energy eV
# Column.2: requested_energy eV
# Column.3: measurement_time seconds
# Column.4: xmu 
# Column.5: I0 nA
# Column.6: It nA
# Column.7: Ir nA
# ///////////
# sample courtesy Martin Stennett, University of Sheffield
# -----------
# energy  requested_energy  measurement_time  xmu  I0  It  Ir
  9681.073  9681.100  0.500  1.451953  104.456505  156.122264  36.550210
  9691.134  9691.100  0.500  1.448048  104.269161  155.975143  36.658625
  9701.135  9701.100  0.500  1.444088  104.066086  155.786661  36.759590
  9711.165  9711.100  0.500  1.440248  102.809409  154.044258  36.488305
  9721.163  9721.100  0.500  1.436282  103.710294  155.523945  36.985186
  9731.170  9731.100  0.500  1.432460  103.527243  155.367655  37.089525
  9741.116  9741.100  0.500  1.428675  103.321414  155.199366  37.189821
  9751.177  9751.100  0.500  1.424805  103.122124  155.015891  37.289886
  9761.099  9761.100  0.500  1.421166  102.920336  154.852174  37.386338
  9771.158  9771.100  0.500  1.417525  102.663207  154.589565  37.459056
  9781.105  9781.100  0.500  1.414010  102.495288  154.449425  37.556876
  9791.118  9791.100  0.500  1.410577  102.239107  154.201875  37.625624
  9801.119  9801.100  0.500  1.407375  102.153078  154.176934  37.740189
  9811.120  9811.100  0.500  1.404650  102.021939  154.114104  37.827766
  9821.122  9821.100  0.500  1.402428  101.339186  153.189025  37.684327
  9831.114  9831.100  0.500  1.401120  101.610683  153.722738  37.865144
  9841.132  9841.100  0.500  1.401868  101.458013  153.618858  37.811245
  9851.116  9851.100  0.500  1.407291  101.263219  153.429936  37.560505
  9853.084  9853.100  0.500  1.409460  101.223647  153.395374  37.470680
  9855.070  9855.100  0.500  1.412198  101.198427  153.396494  37.368502
  9857.061  9857.100  0.500  1.415665  101.173232  153.378106  37.234715
  9859.074  9859.100  0.500  1.420053  101.121832  153.307785  37.054661
  9861.075  9861.100  0.500  1.425953  101.113230  153.324581  36.840724
  9863.076  9863.100  0.500  1.433459  101.064617  153.295589  36.558333
  9865.071  9865.100  0.500  1.443395  101.022431  153.237502  36.183163
  9867.082  9867.100  0.500  1.457209  100.987813  153.225647  35.683992
  9869.078  9869.100  0.500  1.476371  100.956823  153.203145  35.001583
  9871.071  9871.100  0.500  1.504094  100.905140  153.142895  34.031189
  9871.361  9871.400  0.500  1.508969  100.897756  153.120070  33.860654
  9871.660  9871.700  0.500  1.514209  100.908187  153.139962  33.688044
  9871.960  9872.000  0.500  1.520082  100.881450  153.092066  33.480300
  9872.267  9872.300  0.500  1.526330  100.872841  153.100419  33.273595
  9872.566  9872.600  0.500  1.532830  100.875251  153.103487  33.058666
  9872.870  9872.900  0.500  1.540117  100.854622  153.087829  32.815312
  9873.178  9873.200  0.500  1.548157  100.845228  153.080118  32.550888
  9873.473  9873.500  0.500  1.556367  100.840354  153.074897  32.283632
  9873.785  9873.800  0.500  1.565660  100.831209  153.066939  31.983355
  9874.076  9874.100  0.500  1.575427  100.824340  153.056676  31.670369
  9874.375  9874.400  0.500  1.585806  100.810878  153.044447  31.340857
  9874.678  9874.700  0.500  1.597405  100.799977  153.031825  30.976862
  9874.974  9875.000  0.500  1.608901  100.797644  153.018531  30.620131
  9875.298  9875.300  0.500  1.622904  100.787403  153.020031  30.194660
  9875.581  9875.600  0.500  1.636383  100.786825  153.014908  29.789406
  9875.876  9875.900  0.500  1.651473  100.768959  152.989674  29.338409
  9876.180  9876.200  0.500  1.668314  100.772431  153.001631  28.850714
  9876.483  9876.500  0.500  1.686092  100.771777  152.990073  28.340205
  9876.787  9876.800  0.500  1.706804  100.761299  152.979592  27.757337
  9877.082  9877.100  0.500  1.728253  100.742968  152.973655  27.167251
  9877.382  9877.400  0.500  1.753008  100.722034  152.956964  26.500096
  9877.673  9877.700  0.500  1.779248  100.718954  152.938389  25.810642
  9877.985  9878.000  0.500  1.810664  100.708615  152.932204  25.011380
  9878.276  9878.300  0.500  1.843343  100.707649  152.923177  24.205815
  9878.572  9878.600  0.500  1.880260  100.689669  152.907607  23.326119
  9878.875  9878.900  0.500  1.921316  100.683498  152.888800  22.385082
  9879.184  9879.200  0.500  1.966984  100.664259  152.864301  21.382372
  9879.479  9879.500  0.500  2.016496  100.649197  152.846023  20.347031
  9879.783  9879.800  0.500  2.071330  100.638718  152.838254  19.260383
  9880.091  9880.100  0.500  2.131739  100.611857  152.796156  18.126340
  9880.395  9880.400  0.500  2.200145  100.570280  152.757401  16.923547
  9880.690  9880.700  0.500  2.272836  100.496753  152.633698  15.724257
  9880.990  9881.000  0.500  2.353790  100.335886  152.397631  14.479056
  9881.294  9881.300  0.500  2.439737  100.025072  151.921106  13.245056
  9881.598  9881.600  0.500  2.534352  99.494395  151.117801  11.985624
  9881.898  9881.900  0.500  2.630436  98.928606  150.265885  10.826210
  9882.198  9882.200  0.500  2.727247  98.487860  149.598310  9.783592
  9882.506  9882.500  0.500  2.827497  98.233772  149.235080  8.828858
  9882.793  9882.800  0.500  2.914761  98.184181  149.145752  8.086234
  9883.097  9883.100  0.500  2.995601  98.305305  149.333646  7.467665
  9883.397  9883.400  0.500  3.063091  98.695732  149.922406  7.007819
  9883.680  9883.700  0.500  3.112454  99.222929  150.728687  6.706166
  9883.984  9884.000  0.500  3.153195  99.701596  151.469795  6.470096
  9884.297  9884.300  0.500  3.182209  100.035059  151.979377  6.306218
  9884.580  9884.600  0.500  3.201083  100.198574  152.236979  6.198795
  9884.901  9884.900  0.500  3.213682  100.292475  152.389300  6.127312
  9885.193  9885.200  0.500  3.219120  100.331665  152.450354  6.096524
  9885.493  9885.500  0.500  3.219882  100.349953  152.484596  6.093251
  9885.805  9885.800  0.500  3.216243  100.368749  152.519292  6.116855
  9886.101  9886.100  0.500  3.208441  100.378002  152.535009  6.165403
  9886.397  9886.400  0.500  3.196386  100.383396  152.563080  6.241323
  9886.706  9886.700  0.500  3.179508  100.386143  152.522569  6.345872
  9886.993  9887.000  0.500  3.159240  100.375940  152.513214  6.475408
  9887.297  9887.300  0.500  3.132908  100.370803  152.512669  6.648158
  9887.606  9887.600  0.500  3.101576  100.370745  152.530288  6.860549
  9887.898  9887.900  0.500  3.065857  100.370326  152.535494  7.110270
  9888.202  9888.200  0.500  3.023602  100.351063  152.505730  7.415709
  9888.494  9888.500  0.500  2.978515  100.352041  152.511579  7.758004
  9888.786  9888.800  0.500  2.930194  100.346312  152.505664  8.141772
  9889.094  9889.100  0.500  2.874457  100.331633  152.489110  8.607519
  9889.390  9889.400  0.500  2.819298  100.342833  152.506230  9.096660
  9889.686  9889.700  0.500  2.762475  100.335246  152.504249  9.628399
  9889.991  9890.000  0.500  2.702932  100.315977  152.473056  10.217030
  9890.296  9890.300  0.500  2.646619  100.323798  152.492679  10.810284
  9890.592  9890.600  0.500  2.592288  100.298224  152.456035  11.411114
  9890.905  9890.900  0.500  2.538781  100.294675  152.453227  12.038104
  9891.201  9891.200  0.500  2.491706  100.291029  152.456419  12.618611
  9891.501  9891.500  0.500  2.447686  100.273912  152.425725  13.183835
  9891.797  9891.800  0.500  2.406866  100.268790  152.423132  13.732898
  9892.102  9892.100  0.500  2.369589  100.249737  152.389403  14.251329
  9892.403  9892.400  0.500  2.336968  100.244233  152.386158  14.723573
  9892.707  9892.700  0.500  2.307108  100.237632  152.376995  15.168930
  9892.999  9893.000  0.500  2.280763  100.221018  152.370727  15.573238
  9893.291  9893.300  0.500  2.257845  100.218927  152.365718  15.933730
  9893.605  9893.600  0.500  2.235955  100.207168  152.345184  16.284172
  9893.892  9893.900  0.500  2.218306  100.205814  152.354040  16.575083
  9894.189  9894.200  0.500  2.202618  100.182418  152.323459  16.833795
  9894.498  9894.500  0.500  2.188248  100.175800  152.312920  17.076253
  9894.786  9894.800  0.500  2.176923  100.165520  152.301107  17.269406
  9895.090  9895.100  0.500  2.166437  100.157653  152.292159  17.450417
  9895.404  9895.400  0.500  2.156949  100.151816  152.293795  17.616972
  9895.692  9895.700  0.500  2.148955  100.139260  152.269535  17.755527
  9896.001  9896.000  0.500  2.141695  100.130642  152.269172  17.884858
  9896.306  9896.300  0.500  2.134636  100.130481  152.241751  18.008322
  9896.594  9896.600  0.500  2.128867  100.115574  152.224339  18.110429
  9896.903  9896.900  0.500  2.122976  100.092886  152.189223  18.213237
  9897.208  9897.200  0.500  2.117792  100.086051  152.184777  18.307358
  9897.505  9897.500  0.500  2.112794  100.079902  152.186357  18.399284
  9897.801  9897.800  0.500  2.108132  100.069299  152.173454  18.483695
  9898.098  9898.100  0.500  2.103920  100.066100  152.173611  18.561729
  9898.403  9898.400  0.500  2.099832  100.046166  152.163112  18.636478
  9898.691  9898.700  0.500  2.096284  100.327794  152.598003  18.756173
  9898.983  9899.000  0.500  2.093107  100.349424  152.632602  18.820126
  9899.297  9899.300  0.500  2.089883  100.354683  152.637878  18.881553
  9899.589  9899.600  0.500  2.087191  100.351012  152.613529  18.929423
  9899.882  9899.900  0.500  2.084488  100.345405  152.617103  18.981118
  9900.204  9900.200  0.500  2.081936  100.344040  152.617224  19.029617
  9900.488  9900.500  0.500  2.079647  100.336565  152.601605  19.071279
  9900.797  9900.800  0.500  2.077410  100.326189  152.587473  19.112231
  9901.098  9901.100  0.500  2.075240  100.314008  152.586073  19.153574
  9901.399  9901.400  0.500  2.073278  100.301262  152.579805  19.190395
  9901.709  9901.700  0.500  2.071286  100.287857  152.559857  19.226146
  9901.993  9902.000  0.500  2.069569  100.292811  152.555135  19.258592
  9902.298  9902.300  0.500  2.067864  100.280924  152.551443  19.290986
  9902.608  9902.600  0.500  2.066111  100.268462  152.529248  19.322023
  9902.892  9902.900  0.500  2.064824  100.263312  152.521839  19.345963
  9903.201  9903.200  0.500  2.063461  100.243127  152.499413  19.369501
  9903.494  9903.500  0.500  2.062406  100.243564  152.522552  19.392898
  9903.787  9903.800  0.500  2.061293  100.237435  152.521085  19.414295
  9904.088  9904.100  0.500  2.060143  100.228963  152.498953  19.433809
  9904.385  9904.400  0.500  2.059147  100.217929  152.485115  19.451427
  9904.682  9904.700  0.500  2.058254  100.214152  152.478802  19.467986
  9904.992  9905.000  0.500  2.057312  100.202459  152.457337  19.483587
  9905.284  9905.300  0.500  2.056124  100.193544  152.444403  19.505092
  9905.590  9905.600  0.500  2.054916  100.181391  152.456475  19.530225
  9905.900  9905.900  0.500  2.053758  100.188218  152.461397  19.553481
  9906.099  9906.100  0.500  2.052734  100.179432  152.456727  19.572923
  9907.122  9907.090  0.500  2.047772  100.134373  152.381002  19.660500
  9908.115  9908.090  0.500  2.042068  100.101317  152.357479  19.769912
  9909.172  9909.110  0.500  2.035357  100.081889  152.347281  19.901702
  9910.120  9910.160  0.500  2.028830  100.020066  152.260018  20.020559
  9911.190  9911.220  0.500  2.022050  99.971900  152.199154  20.148692
  9912.261  9912.300  0.500  2.017812  99.964133  152.212644  20.236066
  9913.370  9913.400  0.500  2.018456  99.934782  152.170315  20.217424
  9914.496  9914.520  0.500  2.023993  99.917118  152.145440  20.102497
  9915.631  9915.660  0.500  2.032990  99.900161  152.134297  19.920983
  9916.784  9916.810  0.500  2.043304  99.870339  152.108866  19.713282
  9917.971  9917.990  0.500  2.053261  99.844309  152.096082  19.516334
  9919.153  9919.180  0.500  2.062789  99.832949  152.089872  19.330476
  9920.388  9920.400  0.500  2.073103  99.797016  152.010729  19.122161
  9921.609  9921.630  0.500  2.083947  99.777174  151.997842  18.914325
  9922.870  9922.880  0.500  2.095212  99.741528  151.982340  18.700538
  9924.143  9924.150  0.500  2.106978  99.712045  151.952644  18.478178
  9925.425  9925.440  0.500  2.118993  99.679193  151.903847  18.251644
  9926.729  9926.750  0.500  2.130472  99.630996  151.858091  18.037890
  9928.063  9928.080  0.500  2.141760  99.583225  151.810836  17.829881
  9929.415  9929.430  0.500  2.152241  99.536585  151.735748  17.635244
  9930.792  9930.800  0.500  2.161171  99.419059  151.567853  17.459123
  9932.170  9932.180  0.500  2.168174  98.672317  150.447644  17.209141
  9933.583  9933.590  0.500  2.172811  96.941403  147.817846  16.830118
  9934.991  9935.010  0.500  2.174196  99.446507  151.654907  17.243097
  9936.435  9936.450  0.500  2.172875  99.536358  151.814375  17.284035
  9937.904  9937.910  0.500  2.169481  99.500556  151.780235  17.338909
  9939.395  9939.390  0.500  2.164664  99.473176  151.744370  17.418513
  9940.895  9940.890  0.500  2.158632  99.429814  151.679099  17.516365
  9942.408  9942.410  0.500  2.150890  99.394187  151.659088  17.650170
  9943.939  9943.950  0.500  2.142444  99.358061  151.620302  17.795320
  9945.500  9945.510  0.500  2.133505  99.318571  151.608245  17.953669
  9947.075  9947.080  0.500  2.124783  99.278061  151.542171  18.103066
  9948.676  9948.680  0.500  2.117034  99.235053  151.501027  18.238936
  9950.294  9950.290  0.500  2.109994  99.185825  151.435028  18.359779
  9951.926  9951.930  0.500  2.103860  99.051522  151.242227  18.449232
  9953.572  9953.580  0.500  2.099295  97.352179  148.672834  18.218790
  9955.248  9955.250  0.500  2.095369  97.762779  149.318765  18.369925
  9956.928  9956.940  0.500  2.093136  98.959879  151.156709  18.637592
  9958.661  9958.650  0.500  2.091559  98.991249  151.225143  18.675473
  9960.377  9960.380  0.500  2.090405  98.970065  151.219161  18.696287
  9962.128  9962.130  0.500  2.089380  98.917337  151.159851  18.708123
  9963.897  9963.890  0.500  2.087771  98.847316  151.083682  18.728801
  9965.680  9965.680  0.500  2.085726  98.767501  150.971619  18.753230
  9967.476  9967.480  0.500  2.083141  98.417874  150.455876  18.737538
  9969.311  9969.310  0.500  2.080850  95.901533  146.624940  18.302327
  9971.139  9971.150  0.500  2.079050  98.844986  151.159005  18.902274
  9973.015  9973.010  0.500  2.078341  98.818987  151.145510  18.913994
  9974.891  9974.890  0.500  2.078542  98.765667  151.097728  18.904217
  9976.781  9976.790  0.500  2.079356  98.714859  151.025427  18.879788
  9978.706  9978.710  0.500  2.080967  98.653775  150.949815  18.839963
  9980.662  9980.650  0.500  2.083200  98.574869  150.851704  18.785718
  9982.606  9982.610  0.500  2.085580  98.392462  150.590796  18.708645
  9984.580  9984.580  0.500  2.088392  94.216760  144.229658  17.868057
  9986.582  9986.580  0.500  2.090635  98.172753  150.313893  18.580094
  9988.588  9988.590  0.500  2.092912  98.417303  150.697668  18.585173
  9990.622  9990.620  0.500  2.095059  98.379585  150.672307  18.542187
  9992.695  9992.680  0.500  2.096636  98.333697  150.625726  18.507234
  9994.752  9994.750  0.500  2.098173  98.267989  150.548149  18.469300
  9996.835  9996.840  0.500  2.099763  98.141371  150.375661  18.418825
  9998.967  9998.950  0.500  2.101718  96.470254  147.825872  18.071152
  10001.096  10001.080  0.500  2.103214  97.818584  149.913227  18.298927
  10003.212  10003.220  0.500  2.105048  98.251295  150.597909  18.348826
  10005.403  10005.390  0.500  2.106231  98.186468  150.544070  18.320586
  10007.586  10007.580  0.500  2.106910  98.130797  150.477124  18.300001
  10009.788  10009.780  0.500  2.107002  98.073771  150.394654  18.288287
  10011.999  10012.000  0.500  2.106574  97.986645  150.294917  18.283981
  10014.281  10014.250  0.500  2.105449  96.956895  148.739750  18.115152
  10016.503  10016.510  0.500  2.103360  96.700119  148.365068  18.107313
  10018.800  10018.790  0.500  2.101016  97.814464  150.097777  18.361777
  10021.106  10021.090  0.500  2.098393  97.809351  150.113922  18.411974
  10023.423  10023.410  0.500  2.095621  97.760182  150.073581  18.458119
  10025.762  10025.750  0.500  2.093131  97.716129  150.029874  18.498761
  10028.111  10028.100  0.500  2.090643  97.671142  149.986428  18.539474
  10030.492  10030.480  0.500  2.088579  97.606912  149.904302  18.567602
  10032.887  10032.870  0.500  2.086513  97.513908  149.815369  18.594958
  10035.300  10035.290  0.500  2.084686  97.080247  149.168480  18.548531
  10037.723  10037.720  0.500  2.082596  96.558479  148.382641  18.489423
  10040.157  10040.170  0.500  2.080698  97.517436  149.879878  18.711459
  10042.670  10042.650  0.500  2.078736  97.460560  149.815037  18.740094
  10045.140  10045.140  0.500  2.076995  97.397201  149.757371  18.765535
  10047.665  10047.650  0.500  2.075193  97.344359  149.702817  18.792523
  10050.186  10050.170  0.500  2.073602  97.283106  149.645163  18.815198
  10052.722  10052.720  0.500  2.072056  97.230409  149.575422  18.835523
  10055.311  10055.290  0.500  2.070213  97.178674  149.513894  18.862513
  10057.880  10057.870  0.500  2.068959  97.118876  149.443774  18.877327
  10060.503  10060.480  0.500  2.067859  97.065352  149.380908  18.890140
  10063.114  10063.100  0.500  2.067247  97.007201  149.325634  18.894718
  10065.748  10065.750  0.500  2.067100  96.952850  149.289547  18.892923
  10068.437  10068.410  0.500  2.067020  96.895821  149.238900  18.888033
  10071.118  10071.090  0.500  2.067301  96.847324  149.180955  18.875396
  10073.792  10073.790  0.500  2.067438  96.793234  149.127432  18.866026
  10076.533  10076.510  0.500  2.067452  96.734184  149.071223  18.858666
  10079.267  10079.250  0.500  2.067206  96.675726  149.014092  18.856068
  10082.007  10082.000  0.500  2.066970  96.625020  148.961872  18.853905
  10084.796  10084.780  0.500  2.066508  96.561622  148.898612  18.854607
  10087.579  10087.570  0.500  2.066299  96.367081  148.623573  18.823718
  10090.403  10090.390  0.500  2.065935  94.641307  145.998405  18.497965
  10093.223  10093.220  0.500  2.065530  96.313724  148.594089  18.834471
  10096.090  10096.070  0.500  2.065061  96.292283  148.592323  18.843067
  10098.967  10098.950  0.500  2.064141  96.251923  148.563847  18.856813
  10101.855  10101.840  0.500  2.063261  96.200557  148.510518  18.866629
  10104.766  10104.750  0.500  2.062029  96.149835  148.460296  18.883492
  10107.684  10107.670  0.500  2.060638  96.089316  148.401263  18.902274
  10110.634  10110.620  0.500  2.059206  96.031184  148.350331  18.922854
  10113.586  10113.590  0.500  2.057873  96.179792  148.611398  18.981445
  10116.593  10116.570  0.500  2.056667  96.164489  148.613093  19.004557
  10119.589  10119.580  0.500  2.055587  96.120448  148.571661  19.019807
  10122.626  10122.600  0.500  2.054783  96.068641  148.506447  19.026745
  10125.647  10125.650  0.500  2.054218  96.012297  148.450083  19.030277
  10128.728  10128.710  0.500  2.053820  95.952731  148.397622  19.031118
  10131.784  10131.790  0.500  2.053373  95.896273  148.330157  19.030963
  10134.913  10134.890  0.500  2.052549  95.803521  148.235407  19.034494
  10138.000  10138.010  0.500  2.051378  95.759470  148.207432  19.053201
  10141.164  10141.150  0.500  2.050092  95.705361  148.149949  19.070314
  10144.295  10144.300  0.500  2.048730  95.639890  148.081993  19.087539
  10147.481  10147.480  0.500  2.047079  95.574922  148.016007  19.110574
  10150.673  10150.670  0.500  2.044926  95.512610  147.950534  19.143279
  10153.908  10153.890  0.500  2.042494  95.447486  147.869419  19.179384
  10157.122  10157.120  0.500  2.040306  95.384668  147.802170  19.212642
  10160.379  10160.370  0.500  2.038695  95.313695  147.738842  19.235371
  10163.652  10163.650  0.500  2.036897  95.245364  147.659932  19.259708
  10166.953  10166.940  0.500  2.035540  95.129610  147.517535  19.267256
  10170.248  10170.250  0.500  2.034575  95.112405  147.532699  19.287840
  10173.585  10173.570  0.500  2.033798  95.051419  147.475065  19.295296
  10176.933  10176.920  0.500  2.032950  94.985172  147.391795  19.300753
  10180.297  10180.290  0.500  2.032257  94.910232  147.314928  19.304057
  10183.690  10183.670  0.500  2.031394  94.843400  147.249543  19.312153
  10187.090  10187.080  0.500  2.030425  94.774377  147.172067  19.320702
  10190.515  10190.500  0.500  2.029415  94.699366  147.076351  19.327654
  10193.965  10193.950  0.500  2.028278  94.542659  146.862075  19.321445
  10197.412  10197.410  0.500  2.026987  94.566441  146.956903  19.358904
  10200.912  10200.890  0.500  2.025511  94.490633  146.880517  19.377416
  10204.400  10204.390  0.500  2.024048  94.404668  146.754852  19.389196
  10207.932  10207.910  0.500  2.022660  94.319691  146.654580  19.402851
  10211.470  10211.450  0.500  2.021211  94.244562  146.580035  19.421109
  10215.020  10215.000  0.500  2.019763  94.179503  146.503249  19.439060
  10218.586  10218.580  0.500  2.018303  94.109537  146.425485  19.457135
  10222.209  10222.180  0.500  2.016964  94.036921  146.355955  19.473944
  10225.803  10225.790  0.500  2.015750  93.922192  146.237312  19.481805
  10229.440  10229.420  0.500  2.014597  93.888715  146.215272  19.501329
  10233.089  10233.080  0.500  2.013490  93.805812  146.127941  19.511272
  10236.782  10236.750  0.500  2.012235  93.722040  146.033688  19.523170
  10240.454  10240.440  0.500  2.011072  93.494648  145.707083  19.502188
  10244.175  10244.150  0.500  2.009726  93.590029  145.895275  19.553677
  10247.902  10247.880  0.500  2.008418  93.517216  145.811038  19.567954
  10251.638  10251.620  0.500  2.006987  93.434732  145.715707  19.583173
  10255.398  10255.390  0.500  2.005452  93.365967  145.628564  19.601524
  10259.217  10259.180  0.500  2.003754  93.287150  145.548370  19.624015
  10262.997  10262.980  0.500  2.002173  93.208092  145.471141  19.644641
  10266.830  10266.810  0.500  2.000252  93.125681  145.386403  19.670953
  10270.670  10270.650  0.500  1.998313  93.033129  145.289169  19.695945
  10274.532  10274.510  0.500  1.996458  92.952838  145.183760  19.718203
  10278.415  10278.390  0.500  1.994548  92.720705  144.865439  19.712589
  10282.315  10282.290  0.500  1.992886  92.815804  145.050188  19.770560
  10286.227  10286.210  0.500  1.991256  92.734798  144.956348  19.789998
  10290.174  10290.150  0.500  1.989905  92.651897  144.875416  19.805698
  10294.129  10294.110  0.500  1.988534  92.571875  144.774597  19.819063
  10298.115  10298.080  0.500  1.987263  92.481449  144.688640  19.832491
  10302.117  10302.080  0.500  1.986102  92.400289  144.590374  19.842033
  10306.113  10306.090  0.500  1.984726  92.315645  144.490185  19.855581
  10310.159  10310.130  0.500  1.983568  92.236408  144.414380  19.868164
  10314.203  10314.180  0.500  1.982279  92.146647  144.313173  19.879847
  10318.269  10318.250  0.500  1.980733  92.063083  144.214738  19.897020
  10322.366  10322.340  0.500  1.979100  91.803954  143.833794  19.876905
  10326.485  10326.450  0.500  1.977509  91.918824  144.037946  19.936806
  10330.616  10330.580  0.500  1.975689  91.821703  143.927939  19.957879
  10334.751  10334.730  0.500  1.973840  91.734641  143.843767  19.983116
  10338.921  10338.890  0.500  1.971869  91.643065  143.739116  20.007985
  10343.113  10343.080  0.500  1.969886  91.563577  143.650964  20.035390
  10347.300  10347.280  0.500  1.968086  91.476366  143.563954  20.059338
  10351.536  10351.510  0.500  1.966309  91.393786  143.472887  20.082263
  10355.776  10355.750  0.500  1.964807  91.298710  143.347789  20.094920
  10360.048  10360.010  0.500  1.963148  91.203711  143.258026  20.115669
  10364.327  10364.290  0.500  1.961727  91.118546  143.155445  20.129849
  10368.620  10368.590  0.500  1.960422  91.017665  143.035427  20.139253
  10372.949  10372.910  0.500  1.959017  90.909672  142.903716  20.148986
  10377.281  10377.250  0.500  1.957584  90.810696  142.777833  20.160116
  10381.632  10381.610  0.500  1.956229  90.720293  142.670256  20.172242
  10386.009  10385.990  0.500  1.954781  90.631550  142.567082  20.186852
  10390.423  10390.380  0.500  1.953109  90.535771  142.450286  20.204074
  10394.836  10394.800  0.500  1.951399  90.442192  142.357698  20.225486
  10399.239  10399.230  0.500  1.949656  90.352281  142.257114  20.246460
  10403.692  10403.680  0.500  1.947566  90.259839  142.143602  20.272632
  10408.177  10408.150  0.500  1.945490  90.161225  142.030468  20.298583
  10412.672  10412.640  0.500  1.943408  90.069055  141.919340  20.324975
  10417.170  10417.150  0.500  1.941223  89.980003  141.812635  20.354133
  10421.705  10421.680  0.500  1.939252  89.879970  141.691861  20.376912
  10426.258  10426.230  0.500  1.937307  89.781054  141.581717  20.400716
  10430.824  10430.800  0.500  1.935487  89.691527  141.494519  20.425287
  10435.400  10435.380  0.500  1.933836  89.592485  141.389142  20.443809
  10440.008  10439.990  0.500  1.932227  89.502242  141.275401  20.460253
  10444.648  10444.610  0.500  1.930812  89.410071  141.181927  20.475669
  10449.283  10449.260  0.500  1.929169  89.315872  141.081989  20.494818
  10453.932  10453.920  0.500  1.927596  89.226295  140.971664  20.511042
  10458.637  10458.600  0.500  1.926011  89.128213  140.858190  20.527032
  10463.323  10463.300  0.500  1.924282  89.022452  140.731074  20.543998
  10468.055  10468.020  0.500  1.922710  88.918169  140.598398  20.556913
  10472.793  10472.760  0.500  1.920803  88.816085  140.479821  20.578798
  10477.553  10477.510  0.500  1.918894  88.718360  140.368204  20.601735
  10482.318  10482.290  0.500  1.916907  88.618529  140.247379  20.624942
  10487.130  10487.090  0.500  1.914800  88.517190  140.127239  20.650733
  10491.933  10491.900  0.500  1.912716  88.416889  140.008251  20.676249
  10496.763  10496.730  0.500  1.910675  88.308669  139.879730  20.699460
  10501.623  10501.590  0.500  1.908598  88.205691  139.741641  20.722030
  10506.491  10506.460  0.500  1.906597  88.110133  139.640400  20.748498
  10511.379  10511.350  0.500  1.904878  87.912669  139.365529  20.743285
  10516.295  10516.260  0.500  1.903077  87.884152  139.364578  20.780523
  10521.211  10521.190  0.500  1.901430  87.784164  139.247604  20.797312
  10526.180  10526.130  0.500  1.899784  87.424787  138.721329  20.752847
  10531.124  10531.100  0.500  1.898167  87.574247  139.000233  20.828208
  10536.127  10536.090  0.500  1.896429  87.472293  138.890363  20.847963
  10541.115  10541.090  0.500  1.894622  87.323242  138.684262  20.854674
  10546.141  10546.120  0.500  1.892873  87.260100  138.628597  20.882781
  10551.192  10551.160  0.500  1.890906  87.152255  138.502349  20.904854
  10556.242  10556.220  0.500  1.889025  86.940989  138.216443  20.900987
  10561.332  10561.300  0.500  1.886871  86.946625  138.257845  20.952316
  10566.441  10566.400  0.500  1.884717  86.820921  138.089040  20.971869
  10571.545  10571.520  0.500  1.882483  86.729738  137.988470  21.003469
  10576.718  10576.660  0.500  1.880209  86.606033  137.845858  21.029526
  10581.847  10581.820  0.500  1.878066  86.472032  137.665619  21.047083
  10587.035  10587.000  0.500  1.875812  86.203542  137.266931  21.033479
  10592.218  10592.190  0.500  1.873732  86.292586  137.452033  21.105695
  10597.445  10597.410  0.500  1.871830  86.169176  137.299248  21.122384
  10602.668  10602.640  0.500  1.869940  86.054566  137.159370  21.140771
  10607.935  10607.890  0.500  1.868124  85.935783  137.012749  21.156554
  10613.178  10613.160  0.500  1.866417  85.831272  136.880825  21.172302
  10618.470  10618.450  0.500  1.864672  85.602813  136.558873  21.159383
  10623.797  10623.760  0.500  1.863004  85.624367  136.640863  21.207436
  10629.115  10629.090  0.500  1.861242  85.509858  136.496262  21.222356
  10634.477  10634.440  0.500  1.859319  85.393868  136.362168  21.242320
  10639.835  10639.810  0.500  1.857391  85.269394  136.206935  21.259088
  10645.214  10645.190  0.500  1.855245  85.194752  136.112652  21.290000
  10650.637  10650.600  0.500  1.853206  85.076940  135.974144  21.311757
  10656.046  10656.020  0.500  1.850915  84.952182  135.820035  21.336425
  10661.495  10661.470  0.500  1.848510  84.465301  135.091575  21.273095
  10666.965  10666.930  0.500  1.846136  84.731873  135.562178  21.397933
  10672.436  10672.410  0.500  1.843781  84.597794  135.378872  21.419386
  10677.941  10677.910  0.500  1.841416  84.237655  134.853256  21.386751
  10683.458  10683.430  0.500  1.839221  84.390784  135.134255  21.478400
  10688.995  10688.970  0.500  1.836977  84.268882  134.961507  21.499138
  10694.558  10694.520  0.500  1.835054  84.138680  134.797614  21.514366
  10700.127  10700.100  0.500  1.833164  84.018385  134.664826  21.533833
  10705.717  10705.700  0.500  1.831431  83.926189  134.553773  21.553385
  10711.348  10711.310  0.500  1.829626  83.818454  134.431512  21.572704
  10716.974  10716.950  0.500  1.827771  83.701070  134.262852  21.585644
  10722.637  10722.600  0.500  1.825891  83.571335  134.096801  21.599521
  10728.300  10728.270  0.500  1.824025  83.457126  133.964410  21.618496
  10733.990  10733.960  0.500  1.821895  83.320570  133.792495  21.636790
