# XDI/1.0 BlueSky/1.10.0 BMM/2023-1.0-py310-tiled
# Beamline.name: BMM (06BM) -- Beamline for Materials Measurement (NIST)
# Beamline.xray_source: NSLS-II three-pole wiggler
# Beamline.collimation: paraboloid mirror, 5 nm Rh on 30 nm Pt
# Beamline.focusing: not in use
# Beamline.harmonic_rejection: flat mirror, Pt stripe, pitch = 7.0 mrad relative to beam
# Beamline.software: Bluesky 1.10.0, Ophyd 1.7.0, DataBroker 2.0.0b13, Python 3.10.8, 2023-1.0-py310-tiled
# Detector.I0: 10 cm N2
# Detector.I1: 25 cm N2
# Detector.I2: 25 cm N2
# Element.symbol: Er
# Element.edge: L1
# Element.reference: Er
# Element.reference_material: Er2O3
# Facility.name: NSLS-II
# Facility.energy: 3.0
# Facility.current: 400.0
# Facility.mode: top-off
# Facility.GUP: 123456
# Facility.SAF: 301027
# Facility.cycle: 2023-2
# Mono.name: Si(111)
# Mono.d_spacing: 3.1351860
# Mono.encoder_resolution: 0.0000050 deg/ct
# Mono.angle_offset: 16.0754326 deg
# Mono.scan_mode: pseudo channel cut
# Mono.scan_type: step
# Mono.direction: forward in energy
# Sample.name: Er2O3
# Sample.prep: Powder in PEG pellet
# Sample.x: 123.848 mm
# Sample.y: 114.690 mm
# Sample.SDD_position: 205.000 mm
# Scan.experimenters: Bruce Ravel
# Scan.edge_energy: 9751.3
# Scan.start_time: 2023-05-08T22:39:03
# Scan.end_time: 2023-05-08T22:44:48
# Scan.transient_id: 75685
# Scan.uid: 9cdaaa9b-47cd-4f23-8ab9-6170527e014b
# Scan.plot_hint: ln(I0/It)  --  ln($5/$6)
# Column.1: energy eV
# Column.2: requested_energy eV
# Column.3: measurement_time seconds
# Column.4: xmu 
# Column.5: I0 nA
# Column.6: It nA
# Column.7: Ir nA
# ///////////
# sample courtesy Martin Stennett, University of Sheffield
# -----------
# energy  requested_energy  measurement_time  xmu  I0  It  Ir
  9551.344  9551.300  0.500  1.727074  104.747863  18.624583  7.212859
  9561.404  9561.300  0.500  1.718976  104.561368  18.742590  7.280730
  9571.398  9571.300  0.500  1.714217  104.368524  18.797254  7.315535
  9581.358  9581.300  0.500  1.710631  104.170446  18.828985  7.341965
  9591.331  9591.300  0.500  1.704927  103.988795  18.903664  7.388346
  9601.353  9601.300  0.500  1.698311  103.802717  18.995101  7.443531
  9611.325  9611.300  0.500  1.693090  103.601585  19.057541  7.485523
  9621.358  9621.300  0.500  1.688471  103.397055  19.107975  7.518473
  9631.340  9631.300  0.500  1.682562  103.204671  19.185451  7.568520
  9641.296  9641.300  0.500  1.677537  103.007388  19.245230  7.608556
  9651.316  9651.300  0.500  1.673942  102.658800  19.249181  7.622236
  9661.314  9661.300  0.500  1.669553  102.478823  19.299954  7.655988
  9671.313  9671.300  0.500  1.664477  102.255836  19.355979  7.693697
  9681.312  9681.300  0.500  1.658828  102.059979  19.428334  7.741071
  9691.321  9691.300  0.500  1.653108  101.858895  19.501278  7.788486
  9701.314  9701.300  0.500  1.647587  101.669567  19.572801  7.836194
  9711.312  9711.300  0.500  1.642146  101.426574  19.632546  7.877551
  9721.326  9721.300  0.500  1.638694  101.289562  19.673840  7.904986
  9723.287  9723.300  0.500  1.638167  101.245949  19.675719  7.908054
  9725.273  9725.300  0.500  1.637829  101.201525  19.673739  7.907681
  9727.276  9727.300  0.500  1.637498  101.144011  19.669067  7.909727
  9729.276  9729.300  0.500  1.637112  101.118327  19.671675  7.911199
  9731.276  9731.300  0.500  1.636857  101.075372  19.668332  7.911675
  9733.266  9733.300  0.500  1.636865  101.024198  19.658217  7.909090
  9735.276  9735.300  0.500  1.636597  100.989889  19.656792  7.910009
  9737.279  9737.300  0.500  1.636361  100.944690  19.652637  7.908166
  9739.275  9739.300  0.500  1.636358  100.918249  19.647561  7.907369
  9741.276  9741.300  0.500  1.636694  100.881624  19.633823  7.901811
  9741.760  9741.800  0.500  1.636532  100.865425  19.633854  7.901945
  9742.269  9742.300  0.500  1.636641  100.824461  19.623747  7.897459
  9742.769  9742.800  0.500  1.636774  100.832757  19.622753  7.897834
  9743.269  9743.300  0.500  1.636820  100.832360  19.621757  7.895941
  9743.774  9743.800  0.500  1.637101  100.813665  19.612617  7.891593
  9744.271  9744.300  0.500  1.637349  100.807994  19.606640  7.888389
  9744.779  9744.800  0.500  1.637878  100.791449  19.593063  7.884096
  9745.276  9745.300  0.500  1.638191  100.782499  19.585197  7.879039
  9745.777  9745.800  0.500  1.638552  100.765716  19.574858  7.874672
  9746.278  9746.300  0.500  1.638928  100.752881  19.565004  7.868618
  9746.774  9746.800  0.500  1.639399  100.733281  19.551990  7.863427
  9747.271  9747.300  0.500  1.640045  100.732687  19.539252  7.855603
  9747.780  9747.800  0.500  1.640576  100.729698  19.528294  7.850183
  9748.273  9748.300  0.500  1.641485  100.703519  19.505492  7.838654
  9748.774  9748.800  0.500  1.642510  100.706885  19.486157  7.828070
  9749.275  9749.300  0.500  1.643698  100.688462  19.459459  7.814573
  9749.776  9749.800  0.500  1.645534  100.672520  19.420679  7.795757
  9750.286  9750.300  0.500  1.647406  100.666914  19.383289  7.774864
  9750.787  9750.800  0.500  1.649932  100.656543  19.332396  7.748267
  9751.284  9751.300  0.500  1.652841  100.646706  19.274349  7.718336
  9751.782  9751.800  0.500  1.656366  100.627016  19.202771  7.679249
  9752.291  9752.300  0.500  1.660209  100.620858  19.127943  7.637983
  9752.797  9752.800  0.500  1.664752  100.606424  19.038518  7.591284
  9753.290  9753.300  0.500  1.669376  100.566290  18.943116  7.543477
  9753.800  9753.800  0.500  1.673901  100.578268  18.859841  7.498060
  9754.277  9754.300  0.500  1.678000  100.578470  18.782743  7.456078
  9754.779  9754.800  0.500  1.682033  100.561864  18.704058  7.414155
  9755.284  9755.300  0.500  1.686000  100.559274  18.629513  7.374911
  9755.782  9755.800  0.500  1.689985  100.537191  18.551349  7.335279
  9756.296  9756.300  0.500  1.694333  100.543056  18.471939  7.292895
  9756.794  9756.800  0.500  1.698681  100.520588  18.387684  7.250081
  9757.288  9757.300  0.500  1.703022  100.508782  18.305902  7.206759
  9757.794  9757.800  0.500  1.707385  100.493337  18.223393  7.163893
  9758.300  9758.300  0.500  1.711784  100.491130  18.143009  7.120835
  9758.794  9758.800  0.500  1.716177  100.471802  18.060018  7.078547
  9759.296  9759.300  0.500  1.720778  100.459173  17.974855  7.033683
  9759.798  9759.800  0.500  1.725547  100.446726  17.887121  6.987413
  9760.292  9760.300  0.500  1.730506  100.441230  17.797664  6.941059
  9760.795  9760.800  0.500  1.735935  100.428685  17.699079  6.888967
  9761.293  9761.300  0.500  1.741882  100.413927  17.591558  6.835361
  9761.791  9761.800  0.500  1.748241  100.402844  17.478116  6.775054
  9762.290  9762.300  0.500  1.755255  100.392239  17.354124  6.711587
  9762.800  9762.800  0.500  1.762769  100.379746  17.222063  6.645318
  9763.303  9763.300  0.500  1.770284  100.367808  17.091098  6.577173
  9763.797  9763.800  0.500  1.778096  100.359372  16.956671  6.508126
  9764.308  9764.300  0.500  1.785997  100.347964  16.821317  6.439337
  9764.807  9764.800  0.500  1.793225  100.332284  16.697558  6.375532
  9765.306  9765.300  0.500  1.799815  100.307926  16.583865  6.319212
  9765.800  9765.800  0.500  1.804958  100.305097  16.498318  6.275371
  9766.295  9766.300  0.500  1.808748  100.698538  16.500376  6.266664
  9766.790  9766.800  0.500  1.810836  100.704119  16.466880  6.251405
  9767.289  9767.300  0.500  1.811597  100.689643  16.451979  6.243317
  9767.792  9767.800  0.500  1.811219  100.678558  16.456384  6.245915
  9768.291  9768.300  0.500  1.810143  100.662169  16.471424  6.254019
  9768.806  9768.800  0.500  1.808545  100.631419  16.492727  6.265798
  9769.301  9769.300  0.500  1.806807  100.630282  16.521229  6.280775
  9769.804  9769.800  0.500  1.805187  100.608872  16.544496  6.293140
  9770.304  9770.300  0.500  1.803638  100.581419  16.565625  6.303648
  9770.807  9770.800  0.500  1.803009  100.546262  16.570254  6.306684
  9771.298  9771.300  0.500  1.802605  100.513977  16.571624  6.307463
  9771.797  9771.800  0.500  1.802865  100.488258  16.563073  6.306332
  9772.305  9772.300  0.500  1.803148  100.424230  16.547835  6.298123
  9772.800  9772.800  0.500  1.803740  100.210120  16.502780  6.279596
  9773.300  9773.300  0.500  1.804317  99.415482  16.362474  6.225901
  9773.795  9773.800  0.500  1.805378  98.979277  16.273413  6.190333
  9774.295  9774.300  0.500  1.805860  99.492775  16.349957  6.217901
  9774.799  9774.800  0.500  1.806145  100.174153  16.457234  6.257497
  9775.298  9775.300  0.500  1.806167  100.500107  16.510420  6.279586
  9775.802  9775.800  0.500  1.805877  100.542201  16.522120  6.284347
  9776.298  9776.300  0.500  1.805468  100.527838  16.526520  6.286393
  9777.306  9777.290  0.500  1.803823  100.503622  16.549754  6.299258
  9778.306  9778.290  0.500  1.800866  100.474822  16.593997  6.321719
  9779.315  9779.310  0.500  1.797045  100.435609  16.651028  6.352279
  9780.373  9780.360  0.500  1.792273  100.400231  16.724785  6.392340
  9781.431  9781.420  0.500  1.786458  100.321867  16.809181  6.435519
  9782.519  9782.500  0.500  1.780388  100.074827  16.869892  6.474278
  9783.620  9783.600  0.500  1.774307  98.787080  16.754387  6.441867
  9784.737  9784.720  0.500  1.768493  100.008507  17.060439  6.573965
  9785.867  9785.860  0.500  1.762763  100.363646  17.219404  6.647804
  9787.026  9787.010  0.500  1.757518  100.311237  17.300929  6.693025
  9788.210  9788.190  0.500  1.752714  100.267578  17.376672  6.731979
  9789.399  9789.380  0.500  1.749021  100.215602  17.431909  6.763221
  9790.613  9790.600  0.500  1.746170  100.075476  17.457249  6.780030
  9791.831  9791.830  0.500  1.744144  98.869566  17.281854  6.717929
  9793.091  9793.080  0.500  1.743130  99.672465  17.439876  6.782478
  9794.368  9794.350  0.500  1.742117  100.206155  17.551023  6.826657
  9795.654  9795.640  0.500  1.741690  100.162172  17.550821  6.827880
  9796.960  9796.950  0.500  1.741828  100.128988  17.542584  6.825921
  9798.280  9798.280  0.500  1.741868  100.093152  17.535595  6.822418
  9799.645  9799.630  0.500  1.742279  100.033266  17.517918  6.814083
  9801.020  9801.000  0.500  1.742935  99.928141  17.488024  6.801648
  9802.398  9802.380  0.500  1.743458  98.608453  17.248055  6.706961
  9803.786  9803.790  0.500  1.744499  99.680014  17.417334  6.772596
  9805.219  9805.210  0.500  1.745202  99.997183  17.460474  6.787866
  9806.666  9806.650  0.500  1.746264  99.953749  17.434377  6.774717
  9808.125  9808.110  0.500  1.747816  99.920756  17.401587  6.759570
  9809.593  9809.590  0.500  1.749778  99.892259  17.362525  6.740380
  9811.091  9811.090  0.500  1.751925  99.856520  17.319098  6.718214
  9812.619  9812.610  0.500  1.753997  99.819907  17.276911  6.698886
  9814.155  9814.150  0.500  1.755946  99.784881  17.237216  6.676374
  9815.712  9815.710  0.500  1.758488  99.745803  17.186719  6.653843
  9817.287  9817.280  0.500  1.761122  99.723712  17.137715  6.628509
  9818.895  9818.880  0.500  1.763519  99.684798  17.090006  6.605371
  9820.496  9820.490  0.500  1.765124  99.108783  16.964018  6.552905
  9822.139  9822.130  0.500  1.765968  99.495793  17.015882  6.571475
  9823.795  9823.780  0.500  1.765882  99.554079  17.027315  6.576781
  9825.464  9825.450  0.500  1.765162  99.533982  17.036135  6.583772
  9827.146  9827.140  0.500  1.763442  99.424045  17.046615  6.591299
  9828.858  9828.850  0.500  1.760868  98.937736  17.006954  6.580547
  9830.596  9830.580  0.500  1.757620  99.394989  17.141142  6.640319
  9832.330  9832.330  0.500  1.753519  99.376441  17.208372  6.677050
  9834.099  9834.090  0.500  1.749264  99.163068  17.244647  6.701164
  9835.897  9835.880  0.500  1.745112  98.937565  17.277017  6.722523
  9837.687  9837.680  0.500  1.741780  99.235865  17.386934  6.775505
  9839.524  9839.510  0.500  1.739314  99.225072  17.427984  6.796980
  9841.358  9841.350  0.500  1.737324  99.166621  17.452412  6.811486
  9843.213  9843.210  0.500  1.736093  98.599138  17.373915  6.783010
  9845.107  9845.090  0.500  1.735157  99.050359  17.469760  6.823584
  9846.993  9846.990  0.500  1.734468  99.058491  17.483237  6.832375
  9848.922  9848.910  0.500  1.733973  99.013454  17.483935  6.833078
  9850.864  9850.850  0.500  1.733365  98.991698  17.490732  6.837535
  9852.828  9852.810  0.500  1.732366  98.944520  17.499869  6.844285
  9854.797  9854.780  0.500  1.730817  98.920517  17.522738  6.857788
  9856.796  9856.780  0.500  1.728959  98.876561  17.547523  6.872869
  9858.796  9858.790  0.500  1.726747  98.835743  17.579125  6.889442
  9860.831  9860.820  0.500  1.724711  98.798628  17.608345  6.906042
  9862.900  9862.880  0.500  1.722871  98.761871  17.634216  6.921023
  9864.957  9864.950  0.500  1.720927  98.717683  17.660614  6.936384
  9867.057  9867.040  0.500  1.719435  98.683118  17.680794  6.948849
  9869.158  9869.150  0.500  1.717661  98.629370  17.702545  6.964086
  9871.294  9871.280  0.500  1.716130  98.597420  17.723921  6.976185
  9873.439  9873.420  0.500  1.714757  98.549895  17.739710  6.985403
  9875.598  9875.590  0.500  1.713919  98.510607  17.747504  6.990147
  9877.800  9877.780  0.500  1.713525  98.445672  17.742809  6.990223
  9879.985  9879.980  0.500  1.713396  98.212009  17.702972  6.975249
  9882.215  9882.200  0.500  1.713736  96.072370  17.311415  6.820909
  9884.466  9884.450  0.500  1.714118  98.174526  17.683442  6.967374
  9886.718  9886.710  0.500  1.715057  98.218231  17.674718  6.961731
  9888.997  9888.990  0.500  1.716208  98.191315  17.649538  6.951178
  9891.302  9891.290  0.500  1.717078  98.145316  17.625934  6.940250
  9893.617  9893.610  0.500  1.716774  98.083203  17.620129  6.938165
  9895.963  9895.950  0.500  1.715714  98.040821  17.631199  6.946617
  9898.301  9898.300  0.500  1.714117  97.990163  17.650253  6.957241
  9900.700  9900.680  0.500  1.712760  97.938908  17.664970  6.967641
  9903.066  9903.070  0.500  1.711231  97.883931  17.682081  6.977803
  9905.505  9905.490  0.500  1.710158  97.844686  17.693952  6.986368
  9907.928  9907.920  0.500  1.708806  97.786639  17.707386  6.995436
  9910.370  9910.370  0.500  1.706983  97.738769  17.731008  7.009093
  9912.864  9912.850  0.500  1.704540  97.685582  17.764711  7.030069
  9915.346  9915.340  0.500  1.701810  97.627876  17.802755  7.052119
  9917.860  9917.850  0.500  1.698530  97.576540  17.851848  7.077917
  9920.383  9920.370  0.500  1.695607  97.511716  17.892214  7.103343
  9922.929  9922.920  0.500  1.692837  97.449653  17.930420  7.125788
  9925.511  9925.490  0.500  1.690286  97.382916  17.963910  7.146852
  9928.068  9928.070  0.500  1.688636  97.291981  17.976772  7.156370
  9930.703  9930.680  0.500  1.687802  96.982823  17.934594  7.143032
  9933.305  9933.300  0.500  1.687333  95.903586  17.743338  7.066691
  9935.973  9935.950  0.500  1.686456  97.257187  18.009556  7.177086
  9938.626  9938.610  0.500  1.685643  97.198520  18.013342  7.179993
  9941.297  9941.290  0.500  1.684744  97.124003  18.015715  7.185460
  9944.012  9943.990  0.500  1.683659  97.059094  18.023215  7.190657
  9946.724  9946.710  0.500  1.682154  96.992727  18.038026  7.200702
  9949.468  9949.450  0.500  1.680644  96.925212  18.052708  7.211754
  9952.218  9952.200  0.500  1.678978  96.152898  17.938721  7.171093
  9954.990  9954.980  0.500  1.677745  96.235984  17.976372  7.190311
  9957.790  9957.770  0.500  1.676000  96.687484  18.092264  7.241117
  9960.596  9960.590  0.500  1.674193  96.642447  18.116539  7.256298
  9963.447  9963.420  0.500  1.672117  96.551154  18.137039  7.270100
  9966.294  9966.270  0.500  1.670047  96.293078  18.126037  7.269957
  9969.170  9969.150  0.500  1.668397  95.076779  17.926642  7.197729
  9972.055  9972.040  0.500  1.666519  96.493987  18.228047  7.322413
  9974.977  9974.950  0.500  1.665166  96.439837  18.242485  7.332308
  9977.900  9977.870  0.500  1.664146  96.343413  18.242839  7.335249
  9980.825  9980.820  0.500  1.663464  96.210492  18.230115  7.332274
  9983.813  9983.790  0.500  1.662975  91.981573  17.437334  7.015876
  9986.789  9986.770  0.500  1.662366  96.072718  18.224004  7.335187
  9989.814  9989.780  0.500  1.661440  96.060753  18.238618  7.343378
  9992.816  9992.800  0.500  1.660602  95.974697  18.237545  7.346540
  9995.871  9995.850  0.500  1.659561  95.815347  18.226238  7.345231
  9998.941  9998.910  0.500  1.658297  93.115568  17.735082  7.151463
  10002.004  10001.990  0.500  1.656624  95.881222  18.292400  7.380830
  10005.126  10005.090  0.500  1.654874  95.810583  18.310939  7.393767
  10008.223  10008.210  0.500  1.653291  95.738688  18.326194  7.404942
  10011.370  10011.350  0.500  1.651274  95.627107  18.341799  7.416849
  10014.520  10014.500  0.500  1.649205  93.363811  17.944764  7.262213
  10017.714  10017.680  0.500  1.646887  95.406126  18.379864  7.444791
  10020.907  10020.870  0.500  1.644457  95.401987  18.423790  7.469666
  10024.118  10024.090  0.500  1.642138  95.342265  18.455005  7.489383
  10027.354  10027.320  0.500  1.639975  95.235529  18.474259  7.503310
  10030.596  10030.570  0.500  1.637691  95.173460  18.504435  7.522610
  10033.884  10033.850  0.500  1.635721  94.878635  18.483487  7.518548
  10037.157  10037.140  0.500  1.633908  94.603953  18.463418  7.516063
  10040.484  10040.450  0.500  1.631762  95.085050  18.597174  7.578852
  10043.822  10043.770  0.500  1.629837  94.994203  18.615211  7.590121
  10047.145  10047.120  0.500  1.628498  94.917108  18.625015  7.600479
  10050.505  10050.490  0.500  1.627242  94.834987  18.632300  7.607119
  10053.898  10053.870  0.500  1.625734  94.761503  18.645951  7.616032
  10057.320  10057.280  0.500  1.624258  94.673934  18.656246  7.626856
  10060.731  10060.700  0.500  1.622662  94.598622  18.671177  7.637367
  10064.179  10064.150  0.500  1.620962  94.524762  18.688349  7.649726
  10067.647  10067.610  0.500  1.619180  94.451549  18.707166  7.662294
  10071.122  10071.090  0.500  1.617319  94.377116  18.727254  7.676372
  10074.622  10074.590  0.500  1.615428  94.302172  18.747802  7.690262
  10078.146  10078.110  0.500  1.613619  94.223063  18.765978  7.703393
  10081.677  10081.650  0.500  1.611934  94.145737  18.782201  7.715665
  10085.232  10085.200  0.500  1.610381  94.048232  18.791922  7.724672
  10088.803  10088.780  0.500  1.609048  91.623328  18.331811  7.540108
  10092.403  10092.380  0.500  1.607605  93.826044  18.799643  7.738435
  10096.020  10095.990  0.500  1.605801  93.795595  18.827472  7.754932
  10099.647  10099.620  0.500  1.604079  93.734409  18.847618  7.768461
  10103.308  10103.280  0.500  1.602345  93.670242  18.867401  7.781510
  10106.972  10106.950  0.500  1.600442  93.598482  18.888861  7.797146
  10110.670  10110.640  0.500  1.598397  93.519953  18.911650  7.814343
  10114.379  10114.350  0.500  1.596346  93.428358  18.931909  7.827201
  10118.117  10118.080  0.500  1.594579  93.347033  18.948888  7.840605
  10121.845  10121.820  0.500  1.592775  93.261496  18.965709  7.851914
  10125.625  10125.590  0.500  1.591008  93.185478  18.983770  7.866031
  10129.398  10129.380  0.500  1.589097  93.103940  19.003433  7.879834
  10133.202  10133.180  0.500  1.587164  93.032832  19.025655  7.894368
  10137.030  10137.010  0.500  1.585215  92.934168  19.042565  7.909488
  10140.888  10140.850  0.500  1.583267  92.853361  19.063090  7.922989
  10144.731  10144.710  0.500  1.581066  92.770694  19.088099  7.940868
  10148.622  10148.590  0.500  1.578849  92.691167  19.114060  7.957377
  10152.511  10152.490  0.500  1.576608  92.603704  19.138865  7.976266
  10156.435  10156.410  0.500  1.574448  92.507418  19.160303  7.992328
  10160.370  10160.350  0.500  1.572193  92.441390  19.189848  8.012301
  10164.340  10164.310  0.500  1.569907  92.345739  19.213865  8.030299
  10168.300  10168.280  0.500  1.567745  92.272584  19.240213  8.045797
  10172.317  10172.280  0.500  1.565629  92.231843  19.272447  8.067373
  10176.310  10176.290  0.500  1.563650  92.146219  19.292690  8.081415
  10180.369  10180.330  0.500  1.561823  92.275017  19.354992  8.114868
  10184.400  10184.380  0.500  1.559858  92.226660  19.382897  8.132679
  10188.483  10188.450  0.500  1.557773  92.136765  19.404416  8.148056
  10192.561  10192.540  0.500  1.556118  91.990847  19.405775  8.154698
  10196.683  10196.650  0.500  1.554307  91.981016  19.438890  8.174621
  10200.799  10200.780  0.500  1.552682  91.889803  19.451189  8.184961
  10204.950  10204.930  0.500  1.551064  91.790903  19.461717  8.196048
  10209.119  10209.090  0.500  1.549330  91.682737  19.472517  8.206185
  10213.317  10213.280  0.500  1.547543  91.596709  19.489051  8.219242
  10217.501  10217.480  0.500  1.545552  91.509772  19.509353  8.233235
  10221.743  10221.710  0.500  1.543520  91.417195  19.529256  8.250339
  10225.975  10225.950  0.500  1.541338  91.274688  19.541406  8.261848
  10230.238  10230.210  0.500  1.539083  91.221414  19.574097  8.282635
  10234.509  10234.490  0.500  1.536623  91.126679  19.601928  8.302265
  10238.820  10238.790  0.500  1.534377  90.683221  19.550393  8.289399
  10243.139  10243.110  0.500  1.532112  90.950444  19.652472  8.341014
  10247.475  10247.450  0.500  1.529819  90.851651  19.676185  8.358909
  10251.833  10251.810  0.500  1.527396  90.749496  19.701735  8.377358
  10256.214  10256.190  0.500  1.525051  90.652531  19.726885  8.394214
  10260.607  10260.580  0.500  1.522925  90.572194  19.751352  8.412018
  10265.018  10265.000  0.500  1.520797  90.459057  19.768716  8.426076
  10269.460  10269.430  0.500  1.518669  90.353572  19.787722  8.442377
  10273.901  10273.880  0.500  1.516454  90.231138  19.804726  8.456419
  10278.383  10278.350  0.500  1.514408  90.164850  19.830710  8.474638
  10282.860  10282.840  0.500  1.512557  90.067267  19.845938  8.487966
  10287.368  10287.350  0.500  1.510845  89.970299  19.858549  8.501174
  10291.913  10291.880  0.500  1.508981  89.865662  19.872466  8.512749
  10296.466  10296.430  0.500  1.506862  89.772962  19.894068  8.528988
