# XDI/1.0 BlueSky/1.10.0 BMM/2023-1.0-py310-tiled
# Beamline.name: BMM (06BM) -- Beamline for Materials Measurement (NIST)
# Beamline.xray_source: NSLS-II three-pole wiggler
# Beamline.collimation: paraboloid mirror, 5 nm Rh on 30 nm Pt
# Beamline.focusing: not in use
# Beamline.harmonic_rejection: flat mirror, Pt stripe, pitch = 7.0 mrad relative to beam
# Beamline.software: Bluesky 1.10.0, Ophyd 1.7.0, DataBroker 2.0.0b13, Python 3.10.8, 2023-1.0-py310-tiled
# Detector.I0: 10 cm N2
# Detector.I1: 25 cm N2
# Detector.I2: 25 cm N2
# Element.symbol: Er
# Element.edge: L1
# Element.reference: Er
# Element.reference_material: Er2O3
# Facility.name: NSLS-II
# Facility.energy: 3.0
# Facility.current: 399.9
# Facility.mode: top-off
# Facility.GUP: 301027
# Facility.SAF: 310583
# Facility.cycle: 2023-2
# Mono.name: Si(111)
# Mono.d_spacing: 3.1351860
# Mono.encoder_resolution: 0.0000050 deg/ct
# Mono.angle_offset: 16.0754326 deg
# Mono.scan_mode: pseudo channel cut
# Mono.scan_type: step
# Mono.direction: forward in energy
# Sample.name: Er2O3
# Sample.prep: PEG pellet
# Sample.x: 109.138 mm
# Sample.y: 153.150 mm
# Sample.SDD_position: 205.000 mm
# Scan.experimenters: Bruce Ravel
# Scan.edge_energy: 9751.3
# Scan.start_time: 2023-05-28T17:06:55
# Scan.end_time: 2023-05-28T17:15:12
# Scan.transient_id: 78861
# Scan.uid: daf0e6d4-93b6-424e-94ab-d3a09398ed9d
# Scan.plot_hint: ln(It/Ir)  --  ln($6/$7)
# Column.1: energy eV
# Column.2: requested_energy eV
# Column.3: measurement_time seconds
# Column.4: xmu 
# Column.5: I0 nA
# Column.6: It nA
# Column.7: Ir nA
# ///////////
# sample courtesy Martin Stennett, University of Sheffield
# -----------
# energy  requested_energy  measurement_time  xmu  I0  It  Ir
  9551.293  9551.300  0.500  1.083159  104.874020  155.009804  52.474619
  9561.356  9561.300  0.500  1.079544  104.689246  154.882301  52.621341
  9571.334  9571.300  0.500  1.077088  104.538010  154.782901  52.716847
  9581.350  9581.300  0.500  1.074978  104.352340  154.634282  52.777512
  9591.359  9591.300  0.500  1.072412  104.194540  154.543301  52.881950
  9601.313  9601.300  0.500  1.069143  104.035854  154.445939  53.021671
  9611.357  9611.300  0.500  1.066544  103.797086  154.236641  53.087623
  9621.338  9621.300  0.500  1.064253  103.629583  154.114765  53.167378
  9631.356  9631.300  0.500  1.061434  103.430609  153.967715  53.266570
  9641.364  9641.300  0.500  1.058892  103.266654  153.843663  53.359102
  9651.332  9651.300  0.500  1.056712  103.069970  153.668912  53.414834
  9661.354  9661.300  0.500  1.054482  102.937732  153.615577  53.515487
  9671.361  9671.300  0.500  1.051907  102.746487  153.445950  53.594237
  9681.353  9681.300  0.500  1.049283  102.567476  153.313318  53.688585
  9691.325  9691.300  0.500  1.046652  102.421393  153.212149  53.794497
  9701.322  9701.300  0.500  1.043874  102.241544  153.070985  53.894488
  9711.356  9711.300  0.500  1.041249  101.309806  151.799248  53.587181
  9721.351  9721.300  0.500  1.039279  101.885450  152.791907  54.043968
  9723.283  9723.300  0.500  1.038999  101.858041  152.777338  54.053954
  9725.273  9725.300  0.500  1.038650  101.871511  152.821133  54.088325
  9727.272  9727.300  0.500  1.038413  101.771206  152.699166  54.057964
  9729.268  9729.300  0.500  1.038140  101.764843  152.705341  54.074927
  9731.268  9731.300  0.500  1.037957  101.691752  152.612868  54.052040
  9733.274  9733.300  0.500  1.037752  101.685355  152.631480  54.069718
  9735.280  9735.300  0.500  1.037514  101.655163  152.602596  54.072367
  9737.279  9737.300  0.500  1.037283  101.584649  152.511892  54.052730
  9739.279  9739.300  0.500  1.037133  101.560792  152.507590  54.059291
  9741.288  9741.300  0.500  1.036956  101.546301  152.502016  54.066872
  9741.559  9741.600  0.500  1.037005  101.506646  152.487705  54.059171
  9741.863  9741.900  0.500  1.036967  101.500471  152.482247  54.059274
  9742.162  9742.200  0.500  1.036958  101.499483  152.483337  54.060148
  9742.465  9742.500  0.500  1.036980  101.492086  152.473134  54.055345
  9742.773  9742.800  0.500  1.036931  101.468868  152.409000  54.035274
  9743.064  9743.100  0.500  1.036982  101.486617  152.467066  54.053078
  9743.376  9743.400  0.500  1.037007  101.464675  152.438202  54.041490
  9743.667  9743.700  0.500  1.037028  101.440589  152.409553  54.030192
  9743.967  9744.000  0.500  1.037061  101.449300  152.432395  54.036514
  9744.279  9744.300  0.500  1.037084  101.440260  152.415508  54.029318
  9744.570  9744.600  0.500  1.037072  101.443307  152.417827  54.030765
  9744.882  9744.900  0.500  1.037121  101.440286  152.414904  54.027089
  9745.178  9745.200  0.500  1.037184  101.425392  152.397132  54.017403
  9745.469  9745.500  0.500  1.037189  101.396173  152.363363  54.005122
  9745.769  9745.800  0.500  1.037299  101.436184  152.423420  54.020486
  9746.068  9746.100  0.500  1.037277  101.404035  152.375723  54.004749
  9746.376  9746.400  0.500  1.037345  101.389577  152.374810  54.000755
  9746.668  9746.700  0.500  1.037418  101.427317  152.423028  54.013891
  9746.975  9747.000  0.500  1.037520  101.368311  152.328770  53.975024
  9747.275  9747.300  0.500  1.037550  101.361386  152.317624  53.969459
  9747.579  9747.600  0.500  1.037660  101.365618  152.314218  53.962279
  9747.879  9747.900  0.500  1.037690  101.339779  152.268056  53.944336
  9748.183  9748.200  0.500  1.037810  101.360791  152.310264  53.952805
  9748.478  9748.500  0.500  1.038027  101.355303  152.308072  53.940314
  9748.782  9748.800  0.500  1.038112  101.337293  152.307021  53.935357
  9749.099  9749.100  0.500  1.038210  101.340145  152.305743  53.929652
  9749.390  9749.400  0.500  1.038453  101.342550  152.322087  53.922290
  9749.694  9749.700  0.500  1.038704  101.634129  152.768368  54.066730
  9749.986  9750.000  0.500  1.038941  101.620476  152.759078  54.050598
  9750.298  9750.300  0.500  1.039246  101.640012  152.781806  54.042158
  9750.586  9750.600  0.500  1.039575  101.642087  152.784459  54.025327
  9750.902  9750.900  0.500  1.040010  101.683693  152.846058  54.023609
  9751.194  9751.200  0.500  1.040423  101.647675  152.782671  53.978903
  9751.498  9751.500  0.500  1.040908  101.628902  152.758299  53.944152
  9751.794  9751.800  0.500  1.041519  101.631767  152.773412  53.916505
  9752.094  9752.100  0.500  1.042133  101.626910  152.772052  53.882920
  9752.390  9752.400  0.500  1.042809  101.593294  152.730568  53.831927
  9752.686  9752.700  0.500  1.043626  101.619720  152.781697  53.805936
  9752.990  9753.000  0.500  1.044463  101.599472  152.757292  53.752359
  9753.286  9753.300  0.500  1.045348  101.576511  152.729847  53.695122
  9753.578  9753.600  0.500  1.046327  101.574830  152.726953  53.641570
  9753.886  9753.900  0.500  1.047251  101.594293  152.769586  53.607012
  9754.182  9754.200  0.500  1.048147  101.610368  152.795305  53.568003
  9754.491  9754.500  0.500  1.049109  101.558338  152.717326  53.489183
  9754.799  9754.800  0.500  1.049955  101.552400  152.694429  53.435924
  9755.095  9755.100  0.500  1.050810  101.554466  152.712089  53.396462
  9755.400  9755.400  0.500  1.051690  101.544118  152.678285  53.337675
  9755.700  9755.700  0.500  1.052441  101.541029  152.671251  53.295203
  9756.000  9756.000  0.500  1.053294  101.536609  152.663555  53.247069
  9756.305  9756.300  0.500  1.054174  101.526193  152.659725  53.198876
  9756.593  9756.600  0.500  1.054983  101.518678  152.654583  53.154075
  9756.901  9756.900  0.500  1.055803  101.530105  152.674417  53.117418
  9757.201  9757.200  0.500  1.056772  101.546696  152.719456  53.081608
  9757.489  9757.500  0.500  1.057607  101.494042  152.638416  53.009176
  9757.782  9757.800  0.500  1.058401  101.484458  152.624274  52.962161
  9758.094  9758.100  0.500  1.059380  101.477206  152.626074  52.911005
  9758.391  9758.400  0.500  1.060240  101.493255  152.639045  52.869986
  9758.683  9758.700  0.500  1.061035  101.472741  152.612814  52.818913
  9758.992  9759.000  0.500  1.061988  101.452914  152.587215  52.759760
  9759.296  9759.300  0.500  1.062850  101.450524  152.581424  52.712270
  9759.588  9759.600  0.500  1.063841  101.435702  152.574756  52.657762
  9759.901  9759.900  0.500  1.064808  101.411501  152.542523  52.595736
  9760.202  9760.200  0.500  1.065786  101.407976  152.538940  52.543123
  9760.498  9760.500  0.500  1.066814  101.402404  152.552100  52.493625
  9760.799  9760.800  0.500  1.067861  101.414976  152.598105  52.454528
  9761.104  9761.100  0.500  1.068932  101.384282  152.527665  52.374196
  9761.396  9761.400  0.500  1.070029  101.433708  152.587349  52.337227
  9761.701  9761.700  0.500  1.071220  101.415868  152.554915  52.263817
  9762.006  9762.000  0.500  1.072450  101.395571  152.542985  52.195485
  9762.298  9762.300  0.500  1.073691  101.354687  152.487155  52.111691
  9762.599  9762.600  0.500  1.075002  101.389078  152.547939  52.064174
  9762.895  9762.900  0.500  1.076400  101.356123  152.521287  51.982332
  9763.192  9763.200  0.500  1.077764  101.333223  152.486410  51.899620
  9763.493  9763.500  0.500  1.079327  101.328707  152.492124  51.820481
  9763.789  9763.800  0.500  1.080878  101.339979  152.493187  51.740548
  9764.094  9764.100  0.500  1.082510  101.353472  152.536904  51.671005
  9764.399  9764.400  0.500  1.084239  101.327106  152.486434  51.564648
  9764.700  9764.700  0.500  1.085917  101.335590  152.484857  51.477687
  9764.997  9765.000  0.500  1.087555  101.300370  152.436577  51.377168
  9765.306  9765.300  0.500  1.089093  101.312277  152.455092  51.304411
  9765.598  9765.600  0.500  1.090554  101.295375  152.440475  51.224596
  9765.899  9765.900  0.500  1.091990  101.290324  152.446938  51.153273
  9766.212  9766.200  0.500  1.093177  101.278251  152.440580  51.090484
  9766.505  9766.500  0.500  1.094156  101.267401  152.412791  51.031170
  9766.794  9766.800  0.500  1.094983  101.261725  152.418433  50.990890
  9767.111  9767.100  0.500  1.095615  101.285499  152.428191  50.961903
  9767.396  9767.400  0.500  1.096122  101.249936  152.383836  50.921280
  9767.693  9767.700  0.500  1.096415  101.252313  152.422607  50.919273
  9768.006  9768.000  0.500  1.096527  101.224045  152.379154  50.899064
  9768.291  9768.300  0.500  1.096431  101.246774  152.408846  50.913870
  9768.583  9768.600  0.500  1.096333  101.209109  152.368057  50.905251
  9768.901  9768.900  0.500  1.096093  101.185470  152.360738  50.915027
  9769.186  9769.200  0.500  1.095671  101.184623  152.325642  50.924754
  9769.491  9769.500  0.500  1.095342  101.178129  152.314137  50.937707
  9769.804  9769.800  0.500  1.094853  101.168688  152.285195  50.952899
  9770.101  9770.100  0.500  1.094531  101.154076  152.262900  50.961852
  9770.407  9770.400  0.500  1.094164  101.139789  152.262409  50.980408
  9770.712  9770.700  0.500  1.093882  101.127424  152.245242  50.989022
  9771.005  9771.000  0.500  1.093568  101.137661  152.263543  51.011197
  9771.306  9771.300  0.500  1.093342  101.060089  152.148915  50.984281
  9771.595  9771.600  0.500  1.093169  101.059006  152.149812  50.993447
  9771.905  9771.900  0.500  1.093095  101.050855  152.159677  51.000505
  9772.202  9772.200  0.500  1.093028  101.028559  152.126131  50.992679
  9772.499  9772.500  0.500  1.093037  101.050372  152.158496  51.003085
  9772.796  9772.800  0.500  1.093115  100.984143  152.050861  50.962996
  9773.089  9773.100  0.500  1.093228  100.956582  152.029115  50.949971
  9773.387  9773.400  0.500  1.093349  100.867391  151.910612  50.904105
  9773.692  9773.700  0.500  1.093431  100.552914  151.441711  50.742808
  9773.993  9774.000  0.500  1.093522  100.090218  150.736264  50.501816
  9774.295  9774.300  0.500  1.093664  99.600688  150.019532  50.254575
  9774.596  9774.600  0.500  1.093753  99.502761  149.883540  50.204560
  9774.894  9774.900  0.500  1.093917  99.807872  150.320057  50.342529
  9775.195  9775.200  0.500  1.093950  100.237362  150.973398  50.559628
  9775.509  9775.500  0.500  1.094024  100.647426  151.607154  50.768128
  9775.802  9775.800  0.500  1.094013  100.886821  151.974475  50.891689
  9776.096  9776.100  0.500  1.094017  101.005768  152.145281  50.948673
  9776.294  9776.300  0.500  1.093965  101.009236  152.155017  50.954606
  9777.285  9777.290  0.500  1.093569  100.992839  152.118034  50.962373
  9778.265  9778.290  0.500  1.092898  100.985418  152.123211  50.998328
  9779.405  9779.310  0.500  1.091564  100.947031  152.095625  51.057120
  9780.315  9780.360  0.500  1.090234  100.868985  151.984085  51.087600
  9781.675  9781.420  0.500  1.087997  100.809063  151.900052  51.173693
  9782.532  9782.500  0.500  1.086115  100.740294  151.836745  51.248726
  9783.562  9783.600  0.500  1.083984  100.154406  150.965097  51.063214
  9784.695  9784.720  0.500  1.081754  99.343545  149.748279  50.764743
  9785.850  9785.860  0.500  1.079482  100.759196  151.891254  51.608319
  9786.984  9787.010  0.500  1.077384  100.792960  151.969457  51.743313
  9788.169  9788.190  0.500  1.075573  100.768649  151.928734  51.823211
  9789.366  9789.380  0.500  1.073963  100.719111  151.869447  51.886478
  9790.579  9790.600  0.500  1.072631  100.632847  151.777701  51.924275
  9791.818  9791.830  0.500  1.071646  100.318999  151.309587  51.815112
  9793.066  9793.080  0.500  1.070919  99.087100  149.437973  51.211417
  9794.335  9794.350  0.500  1.070535  100.595507  151.757543  52.026264
  9795.620  9795.640  0.500  1.070227  100.682991  151.915993  52.096666
  9796.935  9796.950  0.500  1.070029  100.651673  151.860650  52.088005
  9798.267  9798.280  0.500  1.070002  100.630814  151.857873  52.088449
  9799.616  9799.630  0.500  1.069976  100.585180  151.798161  52.069332
  9800.995  9801.000  0.500  1.070036  100.503323  151.693434  52.030266
  9802.365  9802.380  0.500  1.070213  100.310581  151.413120  51.924952
  9803.769  9803.790  0.500  1.070384  99.165320  149.706605  51.330949
  9805.203  9805.210  0.500  1.070468  100.471570  151.680388  52.003334
  9806.645  9806.650  0.500  1.070667  100.440413  151.660434  51.986144
  9808.104  9808.110  0.500  1.071071  100.453279  151.698742  51.978266
  9809.581  9809.590  0.500  1.071609  100.378539  151.612089  51.920647
  9811.075  9811.090  0.500  1.072225  100.360704  151.600804  51.884816
  9812.598  9812.610  0.500  1.072880  100.331889  151.567606  51.839489
  9814.146  9814.150  0.500  1.073503  100.333098  151.583794  51.812698
  9815.716  9815.710  0.500  1.074207  100.263765  151.505248  51.749401
  9817.274  9817.280  0.500  1.074946  100.205784  151.438579  51.688440
  9818.862  9818.880  0.500  1.075766  100.188119  151.424950  51.641428
  9820.475  9820.490  0.500  1.076350  100.042257  151.204538  51.536162
  9822.127  9822.130  0.500  1.076684  99.635580  150.633373  51.324315
  9823.783  9823.780  0.500  1.076689  100.051423  151.288381  51.547233
  9825.447  9825.450  0.500  1.076321  100.052175  151.300289  51.570271
  9827.130  9827.140  0.500  1.075872  100.017724  151.265314  51.581510
  9828.854  9828.850  0.500  1.074992  99.484208  150.466491  51.354289
  9830.588  9830.580  0.500  1.073830  99.895684  151.104837  51.632098
  9832.335  9832.330  0.500  1.072381  99.918474  151.165930  51.727899
  9834.090  9834.090  0.500  1.070783  100.189246  151.601847  51.960003
  9835.863  9835.880  0.500  1.069166  99.618267  150.765638  51.757055
  9837.687  9837.680  0.500  1.067740  100.167822  151.635047  52.129772
  9839.504  9839.510  0.500  1.066592  100.145675  151.615060  52.182784
  9841.354  9841.350  0.500  1.065788  100.163473  151.668124  52.243036
  9843.201  9843.210  0.500  1.065099  99.924938  151.323943  52.160395
  9845.095  9845.090  0.500  1.064591  99.755463  151.080260  52.102872
  9846.998  9846.990  0.500  1.064251  100.002350  151.472839  52.256057
  9848.914  9848.910  0.500  1.063840  100.013003  151.523206  52.294879
  9850.848  9850.850  0.500  1.063579  99.951651  151.468412  52.289622
  9852.812  9852.810  0.500  1.063046  99.937119  151.450012  52.311143
  9854.789  9854.780  0.500  1.062521  99.890147  151.403690  52.322604
  9856.767  9856.780  0.500  1.061718  99.854571  151.365723  52.351536
  9858.784  9858.790  0.500  1.060839  99.812200  151.311013  52.378593
  9860.831  9860.820  0.500  1.060010  99.803056  151.332874  52.429625
  9862.883  9862.880  0.500  1.059276  99.742374  151.277462  52.448912
  9864.940  9864.950  0.500  1.058397  99.711256  151.250014  52.485489
  9867.053  9867.040  0.500  1.057697  99.677415  151.242170  52.519564
  9869.154  9869.150  0.500  1.056863  99.643260  151.183535  52.543002
  9871.277  9871.280  0.500  1.056160  99.622033  151.183861  52.580034
  9873.422  9873.420  0.500  1.055514  99.578653  151.140024  52.598788
  9875.598  9875.590  0.500  1.054997  99.549616  151.108287  52.614896
  9877.783  9877.780  0.500  1.054709  99.510274  151.074276  52.618244
  9879.985  9879.980  0.500  1.054469  99.456368  151.027802  52.614645
  9882.206  9882.200  0.500  1.054345  97.396136  147.937126  51.544321
  9884.453  9884.450  0.500  1.054382  98.926779  150.293500  52.363434
  9886.718  9886.710  0.500  1.054495  99.244392  150.793635  52.531748
  9889.010  9888.990  0.500  1.054712  99.245563  150.813414  52.527224
  9891.294  9891.290  0.500  1.054846  99.236710  150.861742  52.537019
  9893.617  9893.610  0.500  1.054759  99.218175  150.852811  52.538485
  9895.963  9895.950  0.500  1.054290  99.141037  150.738488  52.523289
  9898.297  9898.300  0.500  1.053654  99.085527  150.681695  52.536905
  9900.691  9900.680  0.500  1.052908  99.056384  150.651732  52.565670
  9903.095  9903.070  0.500  1.052222  99.008182  150.608090  52.586474
  9905.488  9905.490  0.500  1.051713  98.975390  150.588598  52.606453
  9907.933  9907.920  0.500  1.051146  98.962796  150.597886  52.639522
  9910.374  9910.370  0.500  1.050388  98.876778  150.500185  52.645244
  9912.851  9912.850  0.500  1.049442  98.838549  150.466966  52.683466
  9915.351  9915.340  0.500  1.048330  98.765836  150.378705  52.711142
  9917.856  9917.850  0.500  1.047084  98.769022  150.417057  52.790321
  9920.379  9920.370  0.500  1.045858  98.697382  150.350127  52.831570
  9922.933  9922.920  0.500  1.044634  98.631797  150.291181  52.875547
  9925.493  9925.490  0.500  1.043627  98.625279  150.301438  52.932411
  9928.080  9928.070  0.500  1.042805  98.506783  150.138025  52.918322
  9930.699  9930.680  0.500  1.042168  98.386545  149.968295  52.892184
  9933.297  9933.300  0.500  1.041768  95.506448  145.613695  51.376938
  9935.956  9935.950  0.500  1.041374  98.447342  150.125926  52.989865
  9938.626  9938.610  0.500  1.040941  98.407734  150.099976  53.003640
  9941.301  9941.290  0.500  1.040488  98.354715  150.043456  53.007687
  9944.016  9943.990  0.500  1.039953  98.278300  149.966118  53.008701
  9946.720  9946.710  0.500  1.039360  98.250874  149.947949  53.033733
  9949.459  9949.450  0.500  1.038558  98.153755  149.838536  53.037558
  9952.209  9952.200  0.500  1.037791  97.925637  149.521217  52.965825
  9954.990  9954.980  0.500  1.037103  96.383961  147.213891  52.184385
  9957.786  9957.770  0.500  1.036395  97.972077  149.665956  53.091167
  9960.600  9960.590  0.500  1.035575  97.943119  149.663167  53.133754
  9963.425  9963.420  0.500  1.034742  97.852827  149.559627  53.141227
  9966.277  9966.270  0.500  1.033836  97.709509  149.374391  53.123544
  9969.165  9969.150  0.500  1.032972  94.800600  144.942214  51.591811
  9972.059  9972.040  0.500  1.032128  97.900823  149.726443  53.339740
  9974.968  9974.950  0.500  1.031400  97.782816  149.577997  53.325666
  9977.896  9977.870  0.500  1.030878  97.696562  149.456332  53.310148
  9980.838  9980.820  0.500  1.030389  97.597355  149.348085  53.297558
  9983.804  9983.790  0.500  1.030080  95.767143  146.573910  52.323741
  9986.780  9986.770  0.500  1.029680  97.290612  148.946551  53.191995
  9989.797  9989.780  0.500  1.029188  97.444722  149.212181  53.313042
  9992.807  9992.800  0.500  1.028705  97.353281  149.114199  53.303790
  9995.871  9995.850  0.500  1.028153  97.252045  148.994505  53.290426
  9998.906  9998.910  0.500  1.027529  95.582991  146.465304  52.418524
  10002.009  10001.990  0.500  1.026749  97.340007  149.186650  53.434130
  10005.091  10005.090  0.500  1.025984  97.264999  149.106569  53.446289
  10008.241  10008.210  0.500  1.025207  97.191526  149.034542  53.461985
  10011.353  10011.350  0.500  1.024346  97.081838  148.901145  53.460173
  10014.520  10014.500  0.500  1.023480  95.603705  146.668867  52.704299
  10017.688  10017.680  0.500  1.022451  96.856378  148.621186  53.460880
  10020.881  10020.870  0.500  1.021469  96.926250  148.758217  53.562740
  10024.101  10024.090  0.500  1.020417  96.853794  148.694619  53.596164
  10027.337  10027.320  0.500  1.019442  96.795377  148.640507  53.628941
  10030.583  10030.570  0.500  1.018407  96.751483  148.590241  53.666332
  10033.862  10033.850  0.500  1.017429  96.565525  148.336998  53.627278
  10037.152  10037.140  0.500  1.016565  94.462557  145.133743  52.514575
  10040.458  10040.450  0.500  1.015587  96.605596  148.458709  53.770220
  10043.787  10043.770  0.500  1.014803  96.553775  148.432117  53.802755
  10047.132  10047.120  0.500  1.014005  96.470550  148.345085  53.814164
  10050.509  10050.490  0.500  1.013380  96.399008  148.275172  53.822383
  10053.868  10053.870  0.500  1.012702  96.346577  148.224543  53.840525
  10057.307  10057.280  0.500  1.011913  96.266901  148.148158  53.855242
  10060.709  10060.700  0.500  1.011177  96.202127  148.074434  53.868080
  10064.153  10064.150  0.500  1.010361  96.149985  148.032832  53.896927
  10067.617  10067.610  0.500  1.009502  96.114168  148.012233  53.935732
  10071.118  10071.090  0.500  1.008698  96.008636  147.882627  53.931856
  10074.587  10074.590  0.500  1.007744  95.936056  147.804472  53.954796
  10078.128  10078.110  0.500  1.006908  95.889206  147.784772  53.992714
  10081.650  10081.650  0.500  1.006087  95.831017  147.719179  54.013051
  10085.219  10085.200  0.500  1.005336  95.739588  147.608659  54.013193
  10088.794  10088.780  0.500  1.004568  94.026675  145.009349  53.102805
  10092.399  10092.380  0.500  1.003822  95.441531  147.242694  53.960923
  10096.006  10095.990  0.500  1.003039  95.487387  147.346189  54.041172
  10099.647  10099.620  0.500  1.002243  95.437919  147.310858  54.071239
  10103.291  10103.280  0.500  1.001314  95.379935  147.246953  54.097986
  10106.985  10106.950  0.500  1.000499  95.336960  147.218228  54.131547
  10110.652  10110.640  0.500  0.999523  95.262522  147.126475  54.150652
  10114.379  10114.350  0.500  0.998617  95.168743  147.024402  54.162108
  10118.099  10118.080  0.500  0.997790  95.113884  146.976239  54.189139
  10121.845  10121.820  0.500  0.996913  95.048146  146.927691  54.218771
  10125.607  10125.590  0.500  0.996069  94.970592  146.845821  54.234330
  10129.394  10129.380  0.500  0.995215  94.864362  146.703290  54.228004
  10133.197  10133.180  0.500  0.994277  94.808268  146.661317  54.263371
  10137.034  10137.010  0.500  0.993369  94.726769  146.583370  54.283792
  10140.875  10140.850  0.500  0.992391  94.663689  146.533248  54.318312
  10144.727  10144.710  0.500  0.991408  94.606871  146.477463  54.351052
  10148.604  10148.590  0.500  0.990336  94.530435  146.403072  54.381702
  10152.520  10152.490  0.500  0.989387  94.464540  146.334419  54.407798
  10156.435  10156.410  0.500  0.988315  94.378135  146.246710  54.433536
  10160.366  10160.350  0.500  0.987359  94.315073  146.189389  54.464235
  10164.349  10164.310  0.500  0.986315  94.233607  146.105163  54.489713
  10168.291  10168.280  0.500  0.985286  94.136877  145.978802  54.498636
  10172.294  10172.280  0.500  0.984345  94.088230  145.932823  54.532721
  10176.310  10176.290  0.500  0.983400  94.008393  145.874672  54.562577
  10180.355  10180.330  0.500  0.982555  93.937725  145.800751  54.581033
  10184.395  10184.380  0.500  0.981628  93.845675  145.694453  54.591792
  10188.479  10188.450  0.500  0.980638  93.760774  145.612897  54.615298
  10192.557  10192.540  0.500  0.979751  93.677745  145.529328  54.632362
  10196.665  10196.650  0.500  0.978837  93.550466  145.365439  54.620751
  10200.795  10200.780  0.500  0.978151  93.522348  145.369153  54.659626
  10204.955  10204.930  0.500  0.977205  93.445688  145.280168  54.677884
  10209.105  10209.090  0.500  0.976454  93.359427  145.189245  54.684709
  10213.304  10213.280  0.500  0.975539  93.281199  145.113585  54.706220
  10217.510  10217.480  0.500  0.974649  93.205784  145.034521  54.725104
  10221.743  10221.710  0.500  0.973662  93.134601  144.960209  54.751100
  10225.989  10225.950  0.500  0.972619  92.994332  144.773520  54.737652
  10230.238  10230.210  0.500  0.971559  92.956863  144.767823  54.793521
  10234.527  10234.490  0.500  0.970444  92.870007  144.660007  54.813817
  10238.829  10238.790  0.500  0.969418  92.616470  144.313280  54.738545
  10243.143  10243.110  0.500  0.968395  92.759764  144.594540  54.901397
  10247.480  10247.450  0.500  0.967257  92.649248  144.453361  54.910255
  10251.847  10251.810  0.500  0.966205  92.559652  144.358039  54.931749
  10256.223  10256.190  0.500  0.965242  92.474151  144.268537  54.950609
  10260.612  10260.580  0.500  0.964203  92.393826  144.187496  54.976819
  10265.036  10265.000  0.500  0.963173  92.303964  144.089550  54.996058
  10269.455  10269.430  0.500  0.962192  92.210935  143.986919  55.010850
  10273.915  10273.880  0.500  0.961221  92.132750  143.904996  55.032963
  10278.370  10278.350  0.500  0.960235  91.879004  143.558130  54.954457
  10282.874  10282.840  0.500  0.959238  91.971411  143.730344  55.075252
  10287.373  10287.350  0.500  0.958394  91.901897  143.675437  55.100696
  10291.908  10291.880  0.500  0.957466  91.809626  143.568308  55.110775
  10296.466  10296.430  0.500  0.956543  91.699824  143.442250  55.113221
  10301.028  10301.000  0.500  0.955593  91.605668  143.334398  55.124146
  10305.612  10305.580  0.500  0.954555  91.523128  143.238109  55.144286
  10310.214  10310.190  0.500  0.953397  91.434108  143.126213  55.165074
  10314.835  10314.810  0.500  0.952346  91.344850  143.043646  55.191240
  10319.501  10319.460  0.500  0.951062  91.236082  142.931937  55.218958
  10324.148  10324.120  0.500  0.949919  91.086054  142.728446  55.203424
  10328.827  10328.800  0.500  0.948775  91.072944  142.756145  55.277330
  10333.511  10333.500  0.500  0.947687  90.972895  142.644160  55.294114
  10338.268  10338.220  0.500  0.946568  90.879921  142.534637  55.313517
  10342.974  10342.960  0.500  0.945667  90.791534  142.420760  55.319113
  10347.736  10347.710  0.500  0.944612  90.701224  142.315289  55.336518
  10352.511  10352.490  0.500  0.943720  90.608974  142.237444  55.355599
  10357.301  10357.290  0.500  0.942737  90.527630  142.153195  55.377238
  10362.136  10362.100  0.500  0.941704  90.425437  142.040613  55.390554
  10366.953  10366.930  0.500  0.940693  90.320028  141.928308  55.402722
  10371.816  10371.790  0.500  0.939605  90.465160  142.197225  55.568143
  10376.694  10376.660  0.500  0.938667  90.396162  142.131488  55.594601
  10381.571  10381.550  0.500  0.937699  90.298116  142.028526  55.608125
  10386.476  10386.460  0.500  0.936603  90.204551  141.920800  55.626861
  10391.429  10391.390  0.500  0.935431  90.110731  141.801256  55.645155
  10396.358  10396.330  0.500  0.934301  90.011947  141.670025  55.656561
  10401.329  10401.300  0.500  0.933239  89.912712  141.563575  55.673813
  10406.310  10406.290  0.500  0.932044  89.828297  141.482632  55.708517
  10411.305  10411.290  0.500  0.930843  89.734831  141.386451  55.737565
  10416.352  10416.320  0.500  0.929624  89.643079  141.277027  55.762313
  10421.380  10421.360  0.500  0.928378  89.552370  141.170802  55.789899
  10426.451  10426.420  0.500  0.927365  89.441110  141.043868  55.796202
  10431.527  10431.500  0.500  0.926266  89.347579  140.947118  55.819233
  10436.622  10436.600  0.500  0.925198  89.228551  140.813988  55.826130
  10441.760  10441.720  0.500  0.924148  89.127200  140.691259  55.836051
  10446.889  10446.860  0.500  0.923086  89.034332  140.593524  55.856529
  10452.052  10452.020  0.500  0.921961  88.928962  140.473711  55.871756
  10457.239  10457.200  0.500  0.921027  88.838491  140.363719  55.880204
  10462.412  10462.390  0.500  0.919993  88.731991  140.239665  55.888573
  10467.647  10467.610  0.500  0.918878  88.627516  140.123137  55.904450
  10472.864  10472.840  0.500  0.917893  88.525475  140.002952  55.911518
  10478.110  10478.090  0.500  0.916871  88.417343  139.888970  55.923143
  10483.399  10483.360  0.500  0.915751  88.310081  139.762173  55.935029
  10488.675  10488.650  0.500  0.914586  88.205898  139.646834  55.954050
  10493.985  10493.960  0.500  0.913387  88.099143  139.518095  55.969508
  10499.329  10499.290  0.500  0.912211  87.996729  139.407173  55.990812
  10504.673  10504.640  0.500  0.910960  87.891028  139.281576  56.010386
  10510.033  10510.010  0.500  0.909724  87.790088  139.162473  56.031708
  10515.432  10515.390  0.500  0.908525  87.673240  139.020727  56.041819
  10520.822  10520.800  0.500  0.907393  87.565836  138.907005  56.059364
  10526.252  10526.220  0.500  0.906289  87.225138  138.410291  55.920648
  10531.701  10531.670  0.500  0.905179  87.367070  138.678953  56.091401
  10537.147  10537.130  0.500  0.904044  87.253832  138.536389  56.097348
  10542.647  10542.610  0.500  0.902892  87.143387  138.412321  56.111751
  10548.147  10548.110  0.500  0.901745  87.035952  138.282637  56.123480
  10553.649  10553.630  0.500  0.900673  86.929592  138.154536  56.131662
  10559.200  10559.170  0.500  0.899572  86.738666  137.899590  56.089815
  10564.752  10564.720  0.500  0.898488  86.705142  137.891578  56.147338
  10570.325  10570.300  0.500  0.897367  86.591501  137.754774  56.154564
  10575.932  10575.900  0.500  0.896279  86.476468  137.624283  56.162436
  10581.541  10581.510  0.500  0.895220  86.359900  137.484165  56.164734
  10587.180  10587.150  0.500  0.894020  86.121503  137.145014  56.093458
  10592.831  10592.800  0.500  0.892823  86.154970  137.233927  56.197045
  10598.497  10598.470  0.500  0.891646  85.945511  136.950069  56.146848
  10604.179  10604.160  0.500  0.890466  85.898772  136.924760  56.202757
