# XDI/1.0 BlueSky/1.10.0 BMM/2023-1.0-py310-tiled
# Beamline.name: BMM (06BM) -- Beamline for Materials Measurement (NIST)
# Beamline.xray_source: NSLS-II three-pole wiggler
# Beamline.collimation: paraboloid mirror, 5 nm Rh on 30 nm Pt
# Beamline.focusing: not in use
# Beamline.harmonic_rejection: flat mirror, Pt stripe, pitch = 7.0 mrad relative to beam
# Beamline.software: Bluesky 1.10.0, Ophyd 1.7.0, DataBroker 2.0.0b13, Python 3.10.8, 2023-1.0-py310-tiled
# Detector.I0: 10 cm N2
# Detector.I1: 25 cm N2
# Detector.I2: 25 cm N2
# Element.symbol: Er
# Element.edge: L1
# Element.reference: Er
# Element.reference_material: Er2O3
# Facility.name: NSLS-II
# Facility.energy: 3.0
# Facility.current: 400.3
# Facility.mode: top-off
# Facility.GUP: 123456
# Facility.SAF: 301027
# Facility.cycle: 2023-2
# Mono.name: Si(111)
# Mono.d_spacing: 3.1351860
# Mono.encoder_resolution: 0.0000050 deg/ct
# Mono.angle_offset: 16.0754326 deg
# Mono.scan_mode: pseudo channel cut
# Mono.scan_type: step
# Mono.direction: forward in energy
# Sample.name: Er2TiO5
# Sample.prep: Powder in PEG pellet
# Sample.x: 149.848 mm
# Sample.y: 114.690 mm
# Sample.SDD_position: 205.000 mm
# Scan.experimenters: Bruce Ravel
# Scan.edge_energy: 9751.3
# Scan.start_time: 2023-05-08T22:45:27
# Scan.end_time: 2023-05-08T22:51:12
# Scan.transient_id: 75690
# Scan.uid: a526b6fd-e22a-4eb3-b1b8-57da77ac87cf
# Scan.plot_hint: ln(I0/It)  --  ln($5/$6)
# Column.1: energy eV
# Column.2: requested_energy eV
# Column.3: measurement_time seconds
# Column.4: xmu 
# Column.5: I0 nA
# Column.6: It nA
# Column.7: Ir nA
# ///////////
# sample courtesy Martin Stennett, University of Sheffield
# -----------
# energy  requested_energy  measurement_time  xmu  I0  It  Ir
  9551.289  9551.300  0.500  0.557433  104.855209  60.048200  23.216748
  9561.309  9561.300  0.500  0.554338  104.659841  60.122129  23.318596
  9571.334  9571.300  0.500  0.551199  104.458470  60.195056  23.394347
  9581.354  9581.300  0.500  0.548322  104.256524  60.251794  23.457864
  9591.378  9591.300  0.500  0.545442  104.038702  60.299355  23.529691
  9601.377  9601.300  0.500  0.542407  103.825886  60.358871  23.617093
  9611.329  9611.300  0.500  0.539582  103.597444  60.396473  23.685727
  9621.374  9621.300  0.500  0.536795  103.379779  60.437797  23.749347
  9631.328  9631.300  0.500  0.534023  103.174236  60.485043  23.822657
  9641.344  9641.300  0.500  0.531223  102.962946  60.530414  23.890032
  9651.344  9651.300  0.500  0.528495  102.755614  60.573560  23.949846
  9661.338  9661.300  0.500  0.526316  102.571400  60.596862  24.005910
  9671.341  9671.300  0.500  0.541957  102.339572  59.521607  23.630366
  9681.365  9681.300  0.500  0.528269  102.152723  60.231769  23.967827
  9691.329  9691.300  0.500  0.525421  101.946522  60.281629  24.044954
  9701.338  9701.300  0.500  0.522224  101.741933  60.353297  24.127312
  9711.332  9711.300  0.500  0.521876  101.494951  60.227757  24.133066
  9721.273  9721.300  0.500  0.520129  101.357690  60.251463  24.179860
  9723.279  9723.300  0.500  0.519538  101.289703  60.246620  24.182470
  9725.293  9725.300  0.500  0.518656  101.254196  60.278680  24.199271
  9727.280  9727.300  0.500  0.518000  101.176664  60.272008  24.201633
  9729.296  9729.300  0.500  0.517262  101.157017  60.304829  24.221813
  9731.293  9731.300  0.500  0.516678  101.116373  60.315824  24.229906
  9733.569  9733.300  0.500  0.516021  101.059187  60.321321  24.235963
  9735.334  9735.300  0.500  0.515593  101.013789  60.320047  24.236860
  9737.308  9737.300  0.500  0.515243  100.977656  60.319578  24.240452
  9739.304  9739.300  0.500  0.515080  100.929669  60.300684  24.235787
  9741.313  9741.300  0.500  0.514778  100.904677  60.304020  24.236878
  9741.789  9741.800  0.500  0.514751  100.890415  60.297067  24.234603
  9742.285  9742.300  0.500  0.514467  100.870117  60.302070  24.234499
  9742.798  9742.800  0.500  0.514488  100.866650  60.298756  24.234376
  9743.286  9743.300  0.500  0.514418  100.855757  60.296483  24.233351
  9743.791  9743.800  0.500  0.514373  100.850119  60.295806  24.228889
  9744.295  9744.300  0.500  0.514486  100.831041  60.277565  24.220696
  9744.792  9744.800  0.500  0.514426  100.809999  60.268639  24.217592
  9745.280  9745.300  0.500  0.514530  100.798997  60.255746  24.206411
  9745.789  9745.800  0.500  0.514667  100.798177  60.247037  24.203277
  9746.282  9746.300  0.500  0.514655  100.790500  60.243158  24.197051
  9746.778  9746.800  0.500  0.514632  100.769477  60.232003  24.189836
  9747.288  9747.300  0.500  0.514781  100.768812  60.222592  24.180724
  9747.788  9747.800  0.500  0.514953  100.752809  60.202685  24.170557
  9748.281  9748.300  0.500  0.515115  100.737432  60.183759  24.155116
  9748.791  9748.800  0.500  0.515507  100.718848  60.149062  24.133524
  9749.296  9749.300  0.500  0.515810  100.710411  60.125832  24.113614
  9749.797  9749.800  0.500  0.516211  100.713227  60.103411  24.091736
  9750.290  9750.300  0.500  0.516737  100.700295  60.064090  24.058785
  9750.804  9750.800  0.500  0.517365  100.691030  60.020813  24.021675
  9751.301  9751.300  0.500  0.518139  100.677884  59.966568  23.976708
  9751.790  9751.800  0.500  0.519180  100.676637  59.903451  23.924834
  9752.295  9752.300  0.500  0.520378  100.658653  59.821023  23.860643
  9752.797  9752.800  0.500  0.521613  100.644557  59.738817  23.788905
  9753.290  9753.300  0.500  0.523079  100.632475  59.644148  23.716415
  9753.792  9753.800  0.500  0.524496  100.622326  59.553664  23.641302
  9754.297  9754.300  0.500  0.525892  100.606871  59.461478  23.573554
  9754.787  9754.800  0.500  0.527167  100.590270  59.375917  23.506819
  9755.284  9755.300  0.500  0.528456  100.585843  59.296830  23.443866
  9755.790  9755.800  0.500  0.529716  100.573666  59.214960  23.380792
  9756.292  9756.300  0.500  0.530916  100.557679  59.134585  23.313888
  9756.790  9756.800  0.500  0.532216  100.552841  59.054870  23.248953
  9757.300  9757.300  0.500  0.533445  100.535342  58.972069  23.181231
  9757.806  9757.800  0.500  0.534837  100.532818  58.888597  23.114728
  9758.288  9758.300  0.500  0.536219  100.521660  58.800700  23.045086
  9758.802  9758.800  0.500  0.537579  100.495263  58.705401  22.973912
  9759.304  9759.300  0.500  0.539076  100.493432  58.616508  22.901568
  9759.794  9759.800  0.500  0.540592  100.487166  58.524079  22.829079
  9760.301  9760.300  0.500  0.542382  100.481183  58.415913  22.750248
  9760.799  9760.800  0.500  0.544277  100.468967  58.298211  22.661075
  9761.293  9761.300  0.500  0.546204  100.460919  58.181340  22.573620
  9761.795  9761.800  0.500  0.548141  100.441339  58.057416  22.474470
  9762.302  9762.300  0.500  0.550492  100.421522  57.909708  22.363158
  9762.792  9762.800  0.500  0.552800  100.411755  57.770538  22.255177
  9763.291  9763.300  0.500  0.554998  100.411796  57.643729  22.148568
  9763.797  9763.800  0.500  0.557635  100.407751  57.489614  22.031053
  9764.296  9764.300  0.500  0.560230  100.397997  57.335060  21.915594
  9764.791  9764.800  0.500  0.562819  100.379251  57.176120  21.798281
  9765.310  9765.300  0.500  0.565318  100.369482  57.027889  21.692375
  9765.800  9765.800  0.500  0.567376  100.356158  56.903073  21.608464
  9766.299  9766.300  0.500  0.568913  100.342548  56.807953  21.543436
  9766.806  9766.800  0.500  0.569967  100.328061  56.739920  21.498490
  9767.305  9767.300  0.500  0.570589  100.313582  56.696491  21.477382
  9767.800  9767.800  0.500  0.570832  100.313585  56.682688  21.476719
  9768.307  9768.300  0.500  0.570533  100.296659  56.690101  21.486544
  9768.798  9768.800  0.500  0.570010  100.285385  56.713387  21.509617
  9769.297  9769.300  0.500  0.569343  100.267477  56.741103  21.531615
  9769.788  9769.800  0.500  0.568606  100.258908  56.778028  21.557614
  9770.299  9770.300  0.500  0.567873  100.235255  56.806271  21.580326
  9770.795  9770.800  0.500  0.567090  100.192151  56.826341  21.594038
  9771.290  9771.300  0.500  0.566419  100.165952  56.849619  21.604720
  9771.801  9771.800  0.500  0.565744  100.132924  56.869217  21.612338
  9772.293  9772.300  0.500  0.565173  100.476196  57.096779  21.695991
  9772.800  9772.800  0.500  0.564613  100.290063  57.022923  21.664554
  9773.308  9773.300  0.500  0.564130  99.518782  56.611748  21.505331
  9773.808  9773.800  0.500  0.563749  99.019375  56.349115  21.399364
  9774.311  9774.300  0.500  0.563247  99.503999  56.653360  21.507613
  9774.803  9774.800  0.500  0.562733  100.194795  57.075993  21.667816
  9775.307  9775.300  0.500  0.562247  100.550559  57.306502  21.757835
  9775.802  9775.800  0.500  0.561583  100.600274  57.372882  21.780586
  9776.306  9776.300  0.500  0.561308  100.585593  57.380322  21.789432
  9777.290  9777.290  0.500  0.560410  100.565832  57.420573  21.816805
  9778.298  9778.290  0.500  0.559344  100.532515  57.462748  21.852174
  9779.310  9779.310  0.500  0.558649  100.492475  57.479843  21.892677
  9780.381  9780.360  0.500  0.557932  100.452325  57.498082  21.938380
  9781.436  9781.420  0.500  0.557080  100.388975  57.510785  21.987122
  9782.527  9782.500  0.500  0.555932  100.157788  57.444238  22.007074
  9783.607  9783.600  0.500  0.554430  98.864594  56.787765  21.800799
  9784.733  9784.720  0.500  0.552944  100.032041  57.543814  22.136474
  9785.867  9785.860  0.500  0.551199  100.405947  57.859798  22.300624
  9787.017  9787.010  0.500  0.549642  100.385654  57.938203  22.374914
  9788.202  9788.190  0.500  0.548114  100.330819  57.995109  22.435546
  9789.386  9789.380  0.500  0.546945  100.275749  58.031093  22.478222
  9790.613  9790.600  0.500  0.545637  100.152998  58.035885  22.501786
  9791.835  9791.830  0.500  0.544657  98.976480  57.410409  22.278809
  9793.078  9793.080  0.500  0.543810  99.678959  57.866819  22.464313
  9794.347  9794.350  0.500  0.543191  100.281418  58.252625  22.623127
  9795.649  9795.640  0.500  0.542816  100.230865  58.245125  22.623251
  9796.960  9796.950  0.500  0.542538  100.186451  58.235464  22.621271
  9798.288  9798.280  0.500  0.542718  100.149248  58.203389  22.607056
  9799.637  9799.630  0.500  0.542930  100.097683  58.161104  22.589703
  9801.003  9801.000  0.500  0.543157  99.989509  58.085053  22.556144
  9802.390  9802.380  0.500  0.543487  98.725023  57.331542  22.260384
  9803.798  9803.790  0.500  0.543824  99.679172  57.866138  22.461759
  9805.215  9805.210  0.500  0.544322  100.040162  58.046814  22.527648
  9806.658  9806.650  0.500  0.544687  99.990167  57.996609  22.500754
  9808.121  9808.110  0.500  0.544939  99.946378  57.956602  22.476414
  9809.602  9809.590  0.500  0.545309  99.912450  57.915520  22.447897
  9811.104  9811.090  0.500  0.545500  99.872140  57.881099  22.417403
  9812.614  9812.610  0.500  0.545656  99.834854  57.850450  22.390511
  9814.159  9814.150  0.500  0.545576  99.805577  57.838140  22.370557
  9815.725  9815.710  0.500  0.545510  99.756879  57.813687  22.343287
  9817.299  9817.280  0.500  0.545360  99.731568  57.807738  22.322753
  9818.887  9818.880  0.500  0.545083  99.685241  57.796894  22.303435
  9820.496  9820.490  0.500  0.544678  99.131912  57.499351  22.176608
  9822.143  9822.130  0.500  0.544136  99.486343  57.736176  22.260255
  9823.791  9823.780  0.500  0.543661  99.556343  57.804291  22.289389
  9825.452  9825.450  0.500  0.543157  99.530714  57.818532  22.301765
  9827.142  9827.140  0.500  0.542588  99.438606  57.797873  22.309312
  9828.858  9828.850  0.500  0.541972  98.913618  57.528179  22.222940
  9830.600  9830.580  0.500  0.541286  99.383444  57.841102  22.374871
  9832.343  9832.330  0.500  0.540590  99.363460  57.869752  22.417582
  9834.107  9834.090  0.500  0.539663  99.168839  57.809925  22.427720
  9835.897  9835.880  0.500  0.538719  98.904189  57.710149  22.421511
  9837.700  9837.680  0.500  0.537923  99.223136  57.942303  22.536950
  9839.524  9839.510  0.500  0.537167  99.202716  57.974205  22.570612
  9841.362  9841.350  0.500  0.536468  99.170765  57.996088  22.594884
  9843.230  9843.210  0.500  0.535753  98.600643  57.703903  22.495850
  9845.095  9845.090  0.500  0.534983  99.021684  57.994958  22.617695
  9846.993  9846.990  0.500  0.534333  99.029827  58.037412  22.637808
  9848.922  9848.910  0.500  0.533752  98.999559  58.053389  22.653978
  9850.864  9850.850  0.500  0.533060  98.942582  58.060158  22.658556
  9852.816  9852.810  0.500  0.532508  98.914292  58.075620  22.677635
  9854.793  9854.780  0.500  0.531810  98.878510  58.095162  22.697573
  9856.801  9856.780  0.500  0.531190  98.832400  58.104081  22.718802
  9858.792  9858.790  0.500  0.530420  98.776253  58.115758  22.740476
  9860.835  9860.820  0.500  0.529807  98.740435  58.130338  22.762527
  9862.896  9862.880  0.500  0.529078  98.686275  58.140839  22.781902
  9864.953  9864.950  0.500  0.528481  98.641949  58.149381  22.805332
  9867.040  9867.040  0.500  0.527771  98.611792  58.172942  22.828970
  9869.167  9869.150  0.500  0.527120  98.563903  58.182511  22.848303
  9871.290  9871.280  0.500  0.526630  98.505653  58.176650  22.860190
  9873.431  9873.420  0.500  0.526247  98.461546  58.172855  22.869892
  9875.606  9875.590  0.500  0.525870  98.413188  58.166228  22.875409
  9877.783  9877.780  0.500  0.525481  98.350128  58.151554  22.874871
  9879.998  9879.980  0.500  0.525237  98.130842  58.036085  22.830992
  9882.219  9882.200  0.500  0.524970  95.945499  56.758795  22.329151
  9884.453  9884.450  0.500  0.524571  98.052380  58.028294  22.824330
  9886.723  9886.710  0.500  0.524225  98.115606  58.085831  22.845534
  9889.010  9888.990  0.500  0.523825  98.091267  58.094616  22.841098
  9891.285  9891.290  0.500  0.523305  98.049325  58.100003  22.837793
  9893.621  9893.610  0.500  0.522760  97.990126  58.096556  22.840412
  9895.959  9895.950  0.500  0.522116  97.931719  58.099354  22.850831
  9898.309  9898.300  0.500  0.521480  97.881538  58.106532  22.868581
  9900.695  9900.680  0.500  0.520583  97.829892  58.127993  22.891657
  9903.083  9903.070  0.500  0.519662  97.776277  58.149658  22.910016
  9905.509  9905.490  0.500  0.518876  97.723884  58.164174  22.927569
  9907.928  9907.920  0.500  0.518004  97.668471  58.181937  22.946782
  9910.383  9910.370  0.500  0.517096  97.617562  58.204414  22.973790
  9912.873  9912.850  0.500  0.516170  97.557532  58.222533  23.002044
  9915.346  9915.340  0.500  0.515243  97.508682  58.247324  23.034123
  9917.877  9917.850  0.500  0.514361  97.442286  58.259036  23.064401
  9920.379  9920.370  0.500  0.513610  97.380256  58.265703  23.093659
  9922.933  9922.920  0.500  0.512836  97.311897  58.269876  23.121193
  9925.493  9925.490  0.500  0.512164  97.240081  58.266038  23.141975
  9928.089  9928.070  0.500  0.511638  97.139926  58.236632  23.145591
  9930.694  9930.680  0.500  0.510994  96.837117  58.092500  23.098376
  9933.314  9933.300  0.500  0.510366  95.640599  57.410741  22.831525
  9935.956  9935.950  0.500  0.509656  97.100356  58.328411  23.203956
  9938.613  9938.610  0.500  0.508904  97.033707  58.332190  23.214940
  9941.305  9941.290  0.500  0.508141  96.965134  58.335492  23.225766
  9943.995  9943.990  0.500  0.507307  96.891903  58.340039  23.239013
  9946.737  9946.710  0.500  0.506607  96.821395  58.338414  23.252705
  9949.459  9949.450  0.500  0.505877  96.733264  58.327894  23.261090
  9952.222  9952.200  0.500  0.505152  96.062357  57.965377  23.134457
  9954.995  9954.980  0.500  0.504361  95.987322  57.965919  23.148228
  9957.795  9957.770  0.500  0.503703  96.511345  58.320719  23.304105
  9960.596  9960.590  0.500  0.502924  96.460838  58.335618  23.328871
  9963.429  9963.420  0.500  0.502123  96.358291  58.320332  23.338060
  9966.269  9966.270  0.500  0.501407  96.115079  58.214782  23.315902
  9969.165  9969.150  0.500  0.500575  94.708165  57.410407  23.008606
  9972.047  9972.040  0.500  0.499798  96.309722  58.426629  23.435135
  9974.968  9974.950  0.500  0.499014  96.220464  58.418212  23.442013
  9977.874  9977.870  0.500  0.498401  96.146076  58.408873  23.451847
  9980.838  9980.820  0.500  0.497559  96.006273  58.373046  23.442618
  9983.800  9983.790  0.500  0.496813  91.835613  55.878940  22.449317
  9986.780  9986.770  0.500  0.495938  95.835595  58.363831  23.454537
  9989.788  9989.780  0.500  0.495147  95.842920  58.414450  23.483364
  9992.803  9992.800  0.500  0.494366  95.759407  58.409178  23.491066
  9995.867  9995.850  0.500  0.493594  95.610888  58.363599  23.482534
  9998.919  9998.910  0.500  0.492847  92.863462  56.728851  22.839675
  10002.009  10001.990  0.500  0.491917  95.637569  58.477893  23.557555
  10005.096  10005.090  0.500  0.491068  95.591546  58.499384  23.581633
  10008.236  10008.210  0.500  0.490139  95.517799  58.508587  23.602416
  10011.353  10011.350  0.500  0.489288  95.398181  58.485092  23.610836
  10014.515  10014.500  0.500  0.488478  93.168226  57.164245  23.098681
  10017.693  10017.680  0.500  0.487632  95.182109  58.449291  23.640318
  10020.881  10020.870  0.500  0.486540  95.173526  58.507881  23.681315
  10024.092  10024.090  0.500  0.485634  95.113037  58.523707  23.710147
  10027.332  10027.320  0.500  0.484886  95.034664  58.519235  23.729623
  10030.583  10030.570  0.500  0.483876  94.925043  58.510836  23.745740
  10033.875  10033.850  0.500  0.482959  94.672644  58.408761  23.725184
  10037.148  10037.140  0.500  0.482095  94.259336  58.204072  23.660309
  10040.458  10040.450  0.500  0.481162  94.834112  58.613608  23.845942
  10043.791  10043.770  0.500  0.480341  94.762884  58.617692  23.865708
  10047.141  10047.120  0.500  0.479429  94.668453  58.612730  23.875850
  10050.505  10050.490  0.500  0.478450  94.584299  58.617960  23.893418
  10053.885  10053.870  0.500  0.477669  94.506293  58.615397  23.908250
  10057.298  10057.280  0.500  0.476736  94.425382  58.619883  23.924034
  10060.722  10060.700  0.500  0.475890  94.355537  58.626078  23.944702
  10064.170  10064.150  0.500  0.474902  94.287414  58.641663  23.964715
  10067.634  10067.610  0.500  0.474075  94.212066  58.643323  23.986062
  10071.105  10071.090  0.500  0.473062  94.114572  58.641975  24.001241
  10074.613  10074.590  0.500  0.472175  94.042379  58.648988  24.021398
  10078.133  10078.110  0.500  0.471397  93.989263  58.661505  24.046264
  10081.663  10081.650  0.500  0.470277  93.903615  58.673697  24.066752
  10085.223  10085.200  0.500  0.469286  93.798944  58.666441  24.078581
  10088.790  10088.780  0.500  0.468533  91.424925  57.224657  23.503970
  10092.403  10092.380  0.500  0.467706  93.592459  58.629840  24.094111
  10096.024  10095.990  0.500  0.466753  93.569917  58.671608  24.128675
  10099.643  10099.620  0.500  0.465764  93.506374  58.689788  24.152611
  10103.313  10103.280  0.500  0.464704  93.427099  58.702217  24.176568
  10106.972  10106.950  0.500  0.463808  93.359249  58.712194  24.199134
  10110.656  10110.640  0.500  0.462908  93.274277  58.711526  24.217609
  10114.374  10114.350  0.500  0.461899  93.197923  58.722729  24.241386
  10118.095  10118.080  0.500  0.460834  93.099188  58.722973  24.260981
  10121.845  10121.820  0.500  0.459813  93.026955  58.737386  24.282746
  10125.616  10125.590  0.500  0.458850  92.952718  58.747047  24.304707
  10129.412  10129.380  0.500  0.457866  92.883267  58.760965  24.331142
  10133.202  10133.180  0.500  0.456880  92.800012  58.766182  24.352383
  10137.034  10137.010  0.500  0.455829  92.719021  58.776672  24.374981
  10140.883  10140.850  0.500  0.454923  92.624569  58.770015  24.394008
  10144.744  10144.710  0.500  0.453847  92.544984  58.782688  24.418843
  10148.622  10148.590  0.500  0.452832  92.463553  58.790631  24.443010
  10152.507  10152.490  0.500  0.451783  92.380101  58.799195  24.468045
  10156.448  10156.410  0.500  0.450932  92.299306  58.797825  24.490576
  10160.379  10160.350  0.500  0.449757  92.220757  58.816821  24.518913
  10164.349  10164.310  0.500  0.448747  92.127718  58.816853  24.541597
  10168.305  10168.280  0.500  0.447843  92.035151  58.810909  24.562941
  10172.312  10172.280  0.500  0.446824  91.952200  58.817794  24.583473
  10176.319  10176.290  0.500  0.445687  91.871363  58.832988  24.607993
  10180.369  10180.330  0.500  0.444635  91.787277  58.841011  24.633672
  10184.413  10184.380  0.500  0.443537  91.701112  58.850315  24.654878
  10188.488  10188.450  0.500  0.442538  91.615031  58.853827  24.676026
  10192.570  10192.540  0.500  0.441531  91.460859  58.813987  24.679853
  10196.688  10196.650  0.500  0.440454  91.445198  58.867318  24.718278
  10200.813  10200.780  0.500  0.439391  91.317162  58.847416  24.729749
  10204.964  10204.930  0.500  0.438373  91.236008  58.855012  24.751247
  10209.123  10209.090  0.500  0.437431  91.158332  58.860330  24.769393
  10213.308  10213.280  0.500  0.436170  91.074102  58.880097  24.794154
  10217.510  10217.480  0.500  0.435175  90.977755  58.876372  24.817098
  10221.730  10221.710  0.500  0.434064  91.032149  58.977069  24.877319
  10225.975  10225.950  0.500  0.432962  91.100636  59.086539  24.946903
  10230.233  10230.210  0.500  0.431965  91.034762  59.102692  24.977341
  10234.522  10234.490  0.500  0.430800  90.937384  59.108291  25.003446
  10238.815  10238.790  0.500  0.429738  90.509377  58.892601  24.934284
  10243.143  10243.110  0.500  0.428665  90.770584  59.125943  25.055888
  10247.484  10247.450  0.500  0.427613  90.675989  59.126520  25.082960
  10251.833  10251.810  0.500  0.426584  90.567247  59.116434  25.098466
  10256.218  10256.190  0.500  0.425509  90.478973  59.122310  25.125334
  10260.607  10260.580  0.500  0.424525  90.377402  59.114111  25.142040
  10265.022  10265.000  0.500  0.423429  90.276785  59.113033  25.165310
  10269.451  10269.430  0.500  0.422309  90.168200  59.108069  25.183664
  10273.915  10273.880  0.500  0.421163  90.057905  59.103492  25.203904
  10278.379  10278.350  0.500  0.420064  89.982051  59.118656  25.231585
  10282.865  10282.840  0.500  0.418869  89.890026  59.128781  25.257427
  10287.373  10287.350  0.500  0.417583  89.776831  59.130304  25.274651
  10291.904  10291.880  0.500  0.416618  89.685369  59.127093  25.294874
  10296.457  10296.430  0.500  0.415393  89.581859  59.131268  25.318612
