# XDI/1.0 BlueSky/1.10.0 BMM/2023-1.0-py310-tiled
# Beamline.name: BMM (06BM) -- Beamline for Materials Measurement (NIST)
# Beamline.xray_source: NSLS-II three-pole wiggler
# Beamline.collimation: paraboloid mirror, 5 nm Rh on 30 nm Pt
# Beamline.focusing: not in use
# Beamline.harmonic_rejection: flat mirror, Pt stripe, pitch = 7.0 mrad relative to beam
# Beamline.software: Bluesky 1.10.0, Ophyd 1.7.0, DataBroker 2.0.0b13, Python 3.10.8, 2023-1.0-py310-tiled
# Detector.I0: 10 cm N2
# Detector.I1: 25 cm N2
# Detector.I2: 25 cm N2
# Element.symbol: Er
# Element.edge: L3
# Element.reference: Er
# Element.reference_material: Er2O3
# Facility.name: NSLS-II
# Facility.energy: 3.0
# Facility.current: 399.6
# Facility.mode: top-off
# Facility.GUP: 123456
# Facility.SAF: 301027
# Facility.cycle: 2023-2
# Mono.name: Si(111)
# Mono.d_spacing: 3.1351860
# Mono.encoder_resolution: 0.0000050 deg/ct
# Mono.angle_offset: 16.0754326 deg
# Mono.scan_mode: pseudo channel cut
# Mono.scan_type: step
# Mono.direction: forward in energy
# Sample.name: Er2TiO5
# Sample.prep: Powder in PEG pellet
# Sample.x: 149.848 mm
# Sample.y: 114.690 mm
# Sample.SDD_position: 205.000 mm
# Scan.experimenters: Bruce Ravel
# Scan.edge_energy: 8357.9
# Scan.start_time: 2023-05-08T19:13:01
# Scan.end_time: 2023-05-08T19:18:46
# Scan.transient_id: 75526
# Scan.uid: 0ede0184-1b96-406f-bdd4-a4d4f41646dd
# Scan.plot_hint: ln(I0/It)  --  ln($5/$6)
# Column.1: energy eV
# Column.2: requested_energy eV
# Column.3: measurement_time seconds
# Column.4: xmu 
# Column.5: I0 nA
# Column.6: It nA
# Column.7: Ir nA
# ///////////
# sample courtesy Martin Stennett, University of Sheffield
# -----------
# energy  requested_energy  measurement_time  xmu  I0  It  Ir
  8157.906  8157.900  0.500  0.694906  134.952426  67.357647  26.857169
  8167.952  8167.900  0.500  0.690117  134.820344  67.614729  27.050636
  8177.938  8177.900  0.500  0.685449  134.648725  67.844663  27.229073
  8187.955  8187.900  0.500  0.680568  134.512073  68.107439  27.420965
  8197.928  8197.900  0.500  0.675861  134.364942  68.353927  27.609467
  8207.946  8207.900  0.500  0.671539  134.200837  68.566146  27.786415
  8217.926  8217.900  0.500  0.666703  134.016134  68.803659  27.970481
  8227.925  8227.900  0.500  0.662005  133.870636  69.052647  28.160619
  8237.926  8237.900  0.500  0.657294  133.710026  69.295442  28.346047
  8247.926  8247.900  0.500  0.652757  133.551704  69.528165  28.529333
  8257.925  8257.900  0.500  0.648250  133.386975  69.756099  28.714214
  8267.928  8267.900  0.500  0.643785  133.216885  69.978852  28.893392
  8277.929  8277.900  0.500  0.639487  132.209638  69.748879  28.883700
  8287.924  8287.900  0.500  0.635177  132.839320  70.383832  29.231047
  8297.910  8297.900  0.500  0.631098  132.678353  70.585825  29.392675
  8307.919  8307.900  0.500  0.627391  132.495839  70.750576  29.533942
  8319.148  8317.900  0.500  0.623723  132.235443  70.870981  29.644017
  8327.880  8327.900  0.500  0.621672  132.118505  70.953713  29.699274
  8329.879  8329.900  0.500  0.621633  132.089011  70.940587  29.692209
  8331.881  8331.900  0.500  0.621511  132.026301  70.915587  29.673066
  8333.882  8333.900  0.500  0.621741  131.869003  70.814823  29.615460
  8335.883  8335.900  0.500  0.622169  131.780035  70.736733  29.563884
  8337.880  8337.900  0.500  0.622836  131.745289  70.670946  29.506524
  8339.877  8339.900  0.500  0.624104  131.678065  70.545364  29.409727
  8341.879  8341.900  0.500  0.626004  131.608677  70.374346  29.275492
  8343.884  8343.900  0.500  0.628944  131.532576  70.127212  29.077635
  8345.882  8345.900  0.500  0.633416  131.478881  69.785765  28.802678
  8347.880  8347.900  0.500  0.640494  131.390386  69.246948  28.365201
  8348.379  8348.400  0.500  0.643055  131.344507  69.045676  28.209680
  8348.876  8348.900  0.500  0.645944  131.305785  68.826202  28.037250
  8349.375  8349.400  0.500  0.649413  131.269713  68.569042  27.834099
  8349.874  8349.900  0.500  0.653236  131.224738  68.284025  27.602233
  8350.376  8350.400  0.500  0.658266  131.181161  67.918826  27.319017
  8350.873  8350.900  0.500  0.663944  131.136784  67.511440  26.997130
  8351.372  8351.400  0.500  0.669952  131.085234  67.080672  26.658004
  8351.877  8351.900  0.500  0.676013  131.042492  66.653549  26.317313
  8352.377  8352.400  0.500  0.681788  130.995619  66.246055  26.001519
  8352.877  8352.900  0.500  0.687341  130.969126  65.865857  25.700640
  8353.385  8353.400  0.500  0.693470  130.954335  65.456010  25.377023
  8353.882  8353.900  0.500  0.700624  130.948000  64.986266  25.005256
  8354.385  8354.400  0.500  0.709493  130.941287  64.409162  24.547135
  8354.882  8354.900  0.500  0.720617  130.931575  63.691947  23.987087
  8355.387  8355.400  0.500  0.735036  130.929108  62.778976  23.284878
  8355.878  8355.900  0.500  0.752815  130.925829  61.671154  22.437163
  8356.381  8356.400  0.500  0.775945  130.920982  60.258845  21.378542
  8356.878  8356.900  0.500  0.804391  130.911158  58.564429  20.136650
  8357.385  8357.400  0.500  0.839954  130.900708  56.513808  18.679944
  8357.885  8357.900  0.500  0.881120  130.887458  54.229099  17.114184
  8358.385  8358.400  0.500  0.929874  130.881939  51.646437  15.440433
  8358.888  8358.900  0.500  0.984468  130.873973  48.899479  13.753557
  8359.398  8359.400  0.500  1.041548  130.869006  46.184694  12.200893
  8359.892  8359.900  0.500  1.094940  130.866612  43.782702  10.924424
  8360.399  8360.400  0.500  1.140331  130.865473  41.839429  9.975077
  8360.899  8360.900  0.500  1.175285  130.862563  40.401319  9.324287
  8361.394  8361.400  0.500  1.199734  130.862349  39.425481  8.897887
  8361.895  8361.900  0.500  1.215474  130.857836  38.808434  8.620111
  8362.392  8362.400  0.500  1.223051  131.353183  38.661304  8.486878
  8362.893  8362.900  0.500  1.222422  131.336693  38.680754  8.444389
  8363.391  8363.400  0.500  1.213492  131.330596  39.025921  8.543509
  8363.889  8363.900  0.500  1.196917  131.322660  39.675748  8.801404
  8364.393  8364.400  0.500  1.173257  131.315001  40.623325  9.228286
  8364.891  8364.900  0.500  1.143284  131.298664  41.854122  9.825109
  8365.398  8365.400  0.500  1.108531  131.299758  43.334636  10.584998
  8365.900  8365.900  0.500  1.072794  131.288039  44.907274  11.429941
  8366.398  8366.400  0.500  1.038215  131.284405  46.485981  12.313677
  8366.890  8366.900  0.500  1.007044  131.272468  47.953465  13.162519
  8367.397  8367.400  0.500  0.979227  131.262136  49.302231  13.969370
  8367.890  8367.900  0.500  0.955930  131.256960  50.462301  14.683521
  8368.391  8368.400  0.500  0.935652  131.252428  51.494268  15.331430
  8368.887  8368.900  0.500  0.919379  131.244634  52.335968  15.863389
  8369.395  8369.400  0.500  0.905728  131.231322  53.049949  16.321793
  8369.893  8369.900  0.500  0.894799  131.218494  53.627638  16.689300
  8370.404  8370.400  0.500  0.885342  131.219426  54.137587  17.016501
  8370.903  8370.900  0.500  0.876990  131.204102  54.585280  17.300879
  8371.408  8371.400  0.500  0.869903  131.201862  54.972535  17.555093
  8371.907  8371.900  0.500  0.863546  131.184088  55.315627  17.777158
  8372.406  8372.400  0.500  0.858246  131.175451  55.605948  17.964120
  8372.899  8372.900  0.500  0.854124  131.163090  55.830364  18.113055
  8373.401  8373.400  0.500  0.850835  131.152542  56.009755  18.238529
  8373.897  8373.900  0.500  0.848463  131.144307  56.139228  18.335213
  8374.393  8374.400  0.500  0.846868  131.142324  56.227999  18.408621
  8374.896  8374.900  0.500  0.845673  131.124295  56.287520  18.456240
  8375.395  8375.400  0.500  0.844940  131.116678  56.325515  18.484640
  8375.894  8375.900  0.500  0.844936  131.108521  56.322242  18.485895
  8376.403  8376.400  0.500  0.845262  131.101376  56.300825  18.469668
  8376.902  8376.900  0.500  0.845908  131.091163  56.260042  18.435000
  8377.402  8377.400  0.500  0.846754  131.089410  56.211720  18.392298
  8377.905  8377.900  0.500  0.847920  131.075835  56.140444  18.336648
  8378.398  8378.400  0.500  0.849055  131.073528  56.075731  18.289133
  8378.904  8378.900  0.500  0.850366  131.062395  55.997550  18.242506
  8379.401  8379.400  0.500  0.851307  131.049400  55.939331  18.210421
  8379.898  8379.900  0.500  0.852526  131.029562  55.862691  18.180024
  8380.392  8380.400  0.500  0.853241  131.020766  55.819009  18.169146
  8380.895  8380.900  0.500  0.853784  131.008852  55.783641  18.167526
  8381.395  8381.400  0.500  0.854188  130.994602  55.755065  18.179568
  8381.901  8381.900  0.500  0.854192  130.980760  55.748936  18.202755
  8382.404  8382.400  0.500  0.854151  130.962144  55.743323  18.231033
  8382.896  8382.900  0.500  0.853810  130.951106  55.757615  18.269360
  8383.890  8383.890  0.500  0.852723  130.908698  55.800193  18.352075
  8384.891  8384.890  0.500  0.851783  130.885937  55.842968  18.415173
  8385.923  8385.910  0.500  0.851653  130.845055  55.832739  18.424880
  8386.972  8386.960  0.500  0.853018  130.810398  55.741831  18.361111
  8388.029  8388.020  0.500  0.855922  130.769331  55.562748  18.228468
  8389.100  8389.100  0.500  0.859849  130.735304  55.330573  18.052193
  8390.208  8390.200  0.500  0.864576  130.706550  55.057541  17.849473
  8391.331  8391.320  0.500  0.869341  130.677421  54.783612  17.641434
  8392.470  8392.460  0.500  0.874315  130.657817  54.503598  17.425466
  8393.618  8393.610  0.500  0.879362  130.630826  54.217992  17.192150
  8394.794  8394.790  0.500  0.884680  130.605147  53.919832  16.948819
  8395.994  8395.980  0.500  0.890059  130.578867  53.619801  16.701782
  8397.213  8397.200  0.500  0.894817  130.544998  53.351441  16.495204
  8398.435  8398.430  0.500  0.898047  130.514692  53.167074  16.364482
  8399.688  8399.680  0.500  0.899357  130.484175  53.085021  16.322366
  8400.965  8400.950  0.500  0.898263  130.455700  53.131555  16.377046
  8402.252  8402.240  0.500  0.894705  130.427164  53.309229  16.516678
  8403.557  8403.550  0.500  0.889381  130.400473  53.582857  16.706225
  8404.881  8404.880  0.500  0.882706  130.372657  53.930196  16.933520
  8406.242  8406.230  0.500  0.876178  130.349723  54.273899  17.156181
  8407.603  8407.600  0.500  0.870051  130.330992  54.599568  17.359957
  8408.983  8408.980  0.500  0.864911  130.299850  54.867863  17.528110
  8410.400  8410.390  0.500  0.860177  130.266374  55.114057  17.673541
  8411.820  8411.810  0.500  0.856354  130.234312  55.311531  17.799126
  8413.250  8413.250  0.500  0.853147  130.200558  55.474793  17.908912
  8414.723  8414.710  0.500  0.850635  130.166390  55.599722  18.009012
  8416.203  8416.190  0.500  0.848858  130.137071  55.686104  18.086469
  8417.692  8417.690  0.500  0.847582  130.099491  55.741074  18.149046
  8419.221  8419.210  0.500  0.846883  130.071605  55.768114  18.191829
  8420.757  8420.750  0.500  0.846518  130.039568  55.774743  18.224407
  8422.321  8422.310  0.500  0.846382  130.006844  55.768261  18.250923
  8423.882  8423.880  0.500  0.846583  129.975184  55.743473  18.266602
  8425.496  8425.480  0.500  0.847064  129.941924  55.702446  18.270767
  8427.098  8427.090  0.500  0.847508  129.913367  55.665460  18.267926
  8428.738  8428.730  0.500  0.847936  129.874143  55.624848  18.256386
  8430.393  8430.380  0.500  0.848219  129.844323  55.596347  18.237962
  8432.061  8432.050  0.500  0.848278  129.801603  55.574734  18.211379
  8433.743  8433.740  0.500  0.848552  129.762438  55.542778  18.169711
  8435.458  8435.450  0.500  0.848961  129.722047  55.502761  18.116999
  8437.192  8437.180  0.500  0.849266  129.690746  55.472470  18.061607
  8438.934  8438.930  0.500  0.849278  129.647234  55.453170  18.011689
  8440.700  8440.690  0.500  0.849252  129.616140  55.441339  17.969284
  8442.495  8442.480  0.500  0.849354  129.582100  55.421123  17.929806
  8444.297  8444.280  0.500  0.849446  129.532457  55.394807  17.898037
  8446.127  8446.110  0.500  0.849490  129.494307  55.376062  17.880079
  8447.961  8447.950  0.500  0.849332  129.444080  55.363317  17.872941
  8449.823  8449.810  0.500  0.849515  129.402979  55.335584  17.870665
  8451.701  8451.690  0.500  0.849527  129.359512  55.316363  17.878250
  8453.602  8453.590  0.500  0.849414  129.320369  55.305836  17.887654
  8455.534  8455.510  0.500  0.849347  129.272137  55.288930  17.895219
  8457.455  8457.450  0.500  0.848961  129.227702  55.291270  17.903333
  8459.420  8459.410  0.500  0.848423  129.179497  55.300385  17.912814
  8461.392  8461.380  0.500  0.847705  129.127539  55.317838  17.931283
  8463.399  8463.380  0.500  0.846841  129.082936  55.346543  17.954776
  8465.400  8465.390  0.500  0.845768  129.039399  55.387247  17.986162
  8467.434  8467.420  0.500  0.844399  128.988650  55.441335  18.016827
  8469.502  8469.480  0.500  0.843236  128.945150  55.487142  18.046592
  8471.559  8471.550  0.500  0.841867  128.893475  55.540898  18.077090
  8473.663  8473.640  0.500  0.840178  128.835923  55.609898  18.109412
  8475.762  8475.750  0.500  0.838334  128.786689  55.691258  18.147167
  8477.899  8477.880  0.500  0.836086  128.732625  55.793200  18.196869
  8480.034  8480.020  0.500  0.834098  128.687900  55.884762  18.254007
  8482.204  8482.190  0.500  0.831789  128.638561  55.992501  18.332321
  8484.394  8484.380  0.500  0.830022  128.589401  56.070101  18.409942
  8486.591  8486.580  0.500  0.828125  128.539836  56.154877  18.492274
  8488.818  8488.800  0.500  0.826418  128.480348  56.224780  18.571285
  8491.060  8491.050  0.500  0.825249  128.427632  56.267481  18.642501
  8493.326  8493.310  0.500  0.824187  128.369181  56.301604  18.701762
  8495.599  8495.590  0.500  0.823625  128.322743  56.312871  18.729236
  8497.911  8497.890  0.500  0.823108  128.268067  56.318011  18.733102
  8500.224  8500.210  0.500  0.822562  128.214871  56.325401  18.721501
  8502.566  8502.550  0.500  0.822335  128.155201  56.311990  18.698350
  8504.913  8504.900  0.500  0.822288  128.101417  56.290973  18.674980
  8507.298  8507.280  0.500  0.822209  128.047439  56.271707  18.658628
  8509.694  8509.670  0.500  0.822212  127.988734  56.245752  18.643624
  8512.104  8512.090  0.500  0.822153  127.923281  56.220273  18.626081
  8514.528  8514.520  0.500  0.822048  127.853762  56.195647  18.607058
  8516.974  8516.970  0.500  0.821673  127.786871  56.187300  18.581725
  8519.457  8519.450  0.500  0.821206  127.711108  56.180223  18.550386
  8521.947  8521.940  0.500  0.820296  127.616696  56.189774  18.531245
  8524.458  8524.450  0.500  0.818954  127.480830  56.205327  18.521269
  8526.976  8526.970  0.500  0.817779  127.161568  56.130498  18.499468
  8529.533  8529.520  0.500  0.816235  122.808055  54.292564  17.919125
  8532.095  8532.090  0.500  0.814486  122.069670  54.060599  17.882000
  8534.684  8534.670  0.500  0.812997  127.064670  56.356575  18.700166
  8537.293  8537.280  0.500  0.811853  127.234400  56.496459  18.803064
  8539.904  8539.900  0.500  0.810343  127.210119  56.571049  18.872873
  8542.566  8542.550  0.500  0.809040  127.162680  56.623674  18.924622
  8545.211  8545.210  0.500  0.808049  127.106037  56.654594  18.960818
  8547.899  8547.890  0.500  0.807285  127.041960  56.669278  18.978769
  8550.598  8550.590  0.500  0.806434  126.981235  56.690453  18.990892
  8553.321  8553.310  0.500  0.805382  126.919863  56.722660  19.002336
  8556.061  8556.050  0.500  0.804454  126.846663  56.742576  19.013325
  8558.812  8558.800  0.500  0.803514  126.773678  56.763271  19.023021
  8561.591  8561.580  0.500  0.802648  126.701706  56.780186  19.033579
  8564.371  8564.370  0.500  0.801554  126.620261  56.805828  19.044121
  8567.204  8567.190  0.500  0.800450  126.543669  56.834132  19.058801
  8570.025  8570.020  0.500  0.799104  126.466012  56.875797  19.081134
  8572.878  8572.870  0.500  0.797666  126.379600  56.918728  19.114458
  8575.760  8575.750  0.500  0.796277  126.296739  56.960429  19.157932
  8578.651  8578.640  0.500  0.794988  126.194518  56.987765  19.206448
  8581.566  8581.550  0.500  0.793394  126.085982  57.029594  19.259783
  8584.477  8584.470  0.500  0.792134  125.961651  57.045195  19.300892
  8587.440  8587.420  0.500  0.790826  125.742495  57.020485  19.322353
  8590.390  8590.390  0.500  0.789571  124.906224  56.712383  19.245686
  8593.389  8593.370  0.500  0.788096  110.344179  50.174574  17.039362
  8596.394  8596.380  0.500  0.786739  125.210512  57.011744  19.373827
  8599.417  8599.400  0.500  0.785635  125.451721  57.184699  19.438254
  8602.457  8602.450  0.500  0.784661  125.350048  57.194016  19.445833
  8605.529  8605.510  0.500  0.783676  125.164543  57.165642  19.436965
  8608.606  8608.590  0.500  0.782726  124.870791  57.085697  19.413212
  8611.708  8611.690  0.500  0.781886  124.302875  56.873822  19.347890
  8614.834  8614.810  0.500  0.780903  122.359988  56.039930  19.068820
  8617.963  8617.950  0.500  0.780437  88.118417  40.376369  13.745857
  8621.122  8621.100  0.500  0.778862  126.314904  57.969429  19.739550
  8624.291  8624.280  0.500  0.777630  126.143910  57.962362  19.750029
  8627.477  8627.470  0.500  0.776357  125.856252  57.903824  19.750886
  8630.715  8630.690  0.500  0.774919  125.626334  57.881201  19.764006
  8633.929  8633.920  0.500  0.773516  125.420705  57.867580  19.780366
  8637.197  8637.170  0.500  0.772076  125.167339  57.833901  19.792825
  8640.464  8640.450  0.500  0.770719  124.376263  57.546425  19.718866
  8643.762  8643.740  0.500  0.769077  110.662586  51.285540  17.598348
  8647.070  8647.050  0.500  0.767846  124.701955  57.863119  19.887875
  8650.387  8650.370  0.500  0.766453  124.905742  58.038468  19.984754
  8653.751  8653.720  0.500  0.765005  124.855965  58.099401  20.039658
  8657.099  8657.090  0.500  0.763378  124.759444  58.149024  20.084784
  8660.481  8660.470  0.500  0.761955  124.675108  58.192486  20.117421
  8663.899  8663.880  0.500  0.760724  124.585150  58.222122  20.144982
  8667.319  8667.300  0.500  0.759233  124.505580  58.271743  20.177172
  8670.771  8670.750  0.500  0.757797  124.405936  58.308805  20.200118
  8674.233  8674.210  0.500  0.756471  124.313526  58.342807  20.223896
  8677.713  8677.690  0.500  0.755108  124.216534  58.376790  20.251841
  8681.213  8681.190  0.500  0.753585  124.127980  58.424055  20.287627
  8684.735  8684.710  0.500  0.752132  124.025738  58.460835  20.325087
  8688.269  8688.250  0.500  0.750668  123.922420  58.497693  20.365946
  8691.823  8691.800  0.500  0.749204  123.811427  58.530932  20.407820
  8695.393  8695.380  0.500  0.747721  123.685828  58.558379  20.442716
  8698.992  8698.980  0.500  0.746149  124.053489  58.824841  20.558356
  8702.613  8702.590  0.500  0.744641  123.768906  58.778443  20.565098
  8706.241  8706.220  0.500  0.743080  120.582282  57.354586  20.088316
  8709.894  8709.880  0.500  0.741884  122.711669  58.437267  20.482183
  8713.577  8713.550  0.500  0.740379  123.779696  59.034660  20.708300
  8717.260  8717.240  0.500  0.738919  123.741026  59.102435  20.753555
  8720.976  8720.950  0.500  0.737690  123.655904  59.134413  20.788560
  8724.698  8724.680  0.500  0.736424  123.562175  59.164440  20.829016
  8728.439  8728.420  0.500  0.735018  123.466844  59.201971  20.868420
  8732.210  8732.190  0.500  0.733587  123.369241  59.239888  20.902582
  8735.995  8735.980  0.500  0.732071  123.267238  59.280722  20.933401
  8739.802  8739.780  0.500  0.730584  123.171333  59.322717  20.967195
  8743.623  8743.610  0.500  0.728895  123.064120  59.371256  21.003080
  8747.470  8747.450  0.500  0.727438  122.969978  59.412384  21.033232
  8751.327  8751.310  0.500  0.725908  122.877445  59.458525  21.067213
  8755.201  8755.190  0.500  0.724529  122.783519  59.495106  21.102240
  8759.108  8759.090  0.500  0.722804  122.680832  59.547986  21.147318
  8763.026  8763.010  0.500  0.721088  122.567608  59.595200  21.189778
  8766.970  8766.950  0.500  0.719501  122.471032  59.642795  21.234710
  8770.927  8770.910  0.500  0.717818  122.370494  59.694254  21.277687
  8774.905  8774.880  0.500  0.716237  122.267691  59.738456  21.323902
  8778.903  8778.880  0.500  0.714611  122.166191  59.785999  21.373923
  8782.898  8782.890  0.500  0.713019  122.051131  59.824838  21.416561
  8786.950  8786.930  0.500  0.711428  121.930899  59.861058  21.457551
  8790.996  8790.980  0.500  0.709729  121.824538  59.910534  21.506177
  8795.069  8795.050  0.500  0.708130  121.702936  59.946558  21.553407
  8799.150  8799.140  0.500  0.706837  121.601269  59.973930  21.596576
  8803.270  8803.250  0.500  0.705216  121.504605  60.023492  21.647071
  8807.402  8807.380  0.500  0.703433  121.397460  60.077617  21.694001
  8811.551  8811.530  0.500  0.701703  121.288889  60.127820  21.733983
  8815.704  8815.690  0.500  0.700150  121.182026  60.168213  21.767602
  8819.897  8819.880  0.500  0.698380  121.076027  60.222081  21.802204
  8824.098  8824.080  0.500  0.696798  120.970177  60.264644  21.833049
  8828.327  8828.310  0.500  0.695150  120.858048  60.308127  21.866773
  8832.566  8832.550  0.500  0.693508  120.756120  60.356251  21.903900
  8836.830  8836.810  0.500  0.691768  120.645194  60.405827  21.947697
  8841.115  8841.090  0.500  0.690059  120.529772  60.451266  21.995081
  8845.411  8845.390  0.500  0.688526  120.420465  60.489108  22.038597
  8849.725  8849.710  0.500  0.686784  120.312904  60.540485  22.088177
  8854.059  8854.050  0.500  0.685271  120.198014  60.574200  22.132126
  8858.429  8858.410  0.500  0.683606  120.085002  60.618119  22.180278
  8862.813  8862.790  0.500  0.681807  119.964771  60.666467  22.229219
  8867.205  8867.180  0.500  0.680125  119.850397  60.710673  22.278043
  8871.615  8871.600  0.500  0.678563  119.737909  60.748480  22.324030
  8876.047  8876.030  0.500  0.676930  119.611426  60.783500  22.366534
  8880.510  8880.480  0.500  0.675069  119.485548  60.832634  22.418333
  8884.967  8884.950  0.500  0.673367  119.370934  60.877782  22.469629
  8889.453  8889.440  0.500  0.671585  119.259592  60.929534  22.520621
  8893.971  8893.950  0.500  0.669839  119.114981  60.961954  22.561452
  8898.497  8898.480  0.500  0.668364  118.999894  60.992971  22.596004
  8903.055  8903.030  0.500  0.666710  118.872181  61.028373  22.628954
