# XDI/1.0 BlueSky/1.10.0 BMM/2023-1.0-py310-tiled
# Beamline.name: BMM (06BM) -- Beamline for Materials Measurement (NIST)
# Beamline.xray_source: NSLS-II three-pole wiggler
# Beamline.collimation: paraboloid mirror, 5 nm Rh on 30 nm Pt
# Beamline.focusing: not in use
# Beamline.harmonic_rejection: flat mirror, Pt stripe, pitch = 7.0 mrad relative to beam
# Beamline.software: Bluesky 1.10.0, Ophyd 1.7.0, DataBroker 2.0.0b13, Python 3.10.8, 2023-1.0-py310-tiled
# Detector.I0: 10 cm N2
# Detector.I1: 25 cm N2
# Detector.I2: 25 cm N2
# Element.symbol: Bi
# Element.edge: L3
# Element.reference: Bi
# Element.reference_material: BiO2
# Facility.name: NSLS-II
# Facility.energy: 3.0
# Facility.current: 399.8
# Facility.mode: top-off
# Facility.GUP: 301027
# Facility.SAF: 310583
# Facility.cycle: 2023-2
# Mono.name: Si(111)
# Mono.d_spacing: 3.1351860
# Mono.encoder_resolution: 0.0000050 deg/ct
# Mono.angle_offset: 16.0754326 deg
# Mono.scan_mode: pseudo channel cut
# Mono.scan_type: step
# Mono.direction: forward in energy
# Sample.name: Bi
# Sample.prep: powder in PEG pellet
# Sample.x: 143.785 mm
# Sample.y: 114.695 mm
# Sample.SDD_position: 205.000 mm
# Scan.experimenters: Bruce Ravel
# Scan.edge_energy: 13418.6
# Scan.start_time: 2023-06-23T17:35:02
# Scan.end_time: 2023-06-23T17:42:53
# Scan.transient_id: 84904
# Scan.uid: eec6dd28-c707-4b1f-9133-84df9fd360cf
# Scan.plot_hint: ln(I0/It)  --  ln($5/$6)
# Column.1: energy eV
# Column.2: requested_energy eV
# Column.3: measurement_time seconds
# Column.4: xmu 
# Column.5: I0 nA
# Column.6: It nA
# Column.7: Ir nA
# ///////////
# BMM standards collection
# -----------
# energy  requested_energy  measurement_time  xmu  I0  It  Ir
  13218.636  13218.600  0.500  0.329442  45.004593  32.372926  16.468172
  13228.655  13228.600  0.500  0.327706  44.923516  32.370754  16.485285
  13238.667  13238.600  0.500  0.326265  44.822584  32.344604  16.497337
  13248.686  13248.600  0.500  0.324764  44.694566  32.300652  16.497142
  13258.667  13258.600  0.500  0.323324  44.540471  32.235700  16.488061
  13268.694  13268.600  0.500  0.321805  44.319745  32.124699  16.453872
  13278.621  13278.600  0.500  0.320368  43.775964  31.776194  16.295846
  13288.616  13288.600  0.500  0.318868  43.588215  31.687384  16.274743
  13298.635  13298.600  0.500  0.317514  43.524290  31.683800  16.293236
  13308.638  13308.600  0.500  0.316061  43.441643  31.669609  16.307620
  13318.656  13318.600  0.500  0.314719  43.365585  31.656628  16.323890
  13328.643  13328.600  0.500  0.313389  43.187530  31.568610  16.293885
  13338.653  13338.600  0.500  0.312170  43.159746  31.586772  16.324559
  13348.632  13348.600  0.500  0.311087  43.095544  31.573957  16.334260
  13358.610  13358.600  0.500  0.310234  43.005589  31.534942  16.325841
  13368.642  13368.600  0.500  0.309503  42.885747  31.470054  16.303026
  13378.737  13378.600  0.500  0.309076  42.696127  31.344297  16.238208
  13388.565  13388.600  0.500  0.309598  42.763828  31.377612  16.242528
  13390.537  13390.600  0.500  0.309881  42.750395  31.358871  16.228233
  13392.541  13392.600  0.500  0.310175  42.739988  31.342018  16.213446
  13394.529  13394.600  0.500  0.310751  42.708759  31.301089  16.186622
  13396.542  13396.600  0.500  0.311182  42.689720  31.273667  16.161817
  13398.540  13398.600  0.500  0.311992  42.669258  31.233363  16.127395
  13400.547  13400.600  0.500  0.312983  42.654037  31.191303  16.092299
  13402.530  13402.600  0.500  0.314057  42.634563  31.143570  16.045484
  13404.530  13404.600  0.500  0.315467  42.619234  31.088529  15.998899
  13406.538  13406.600  0.500  0.317456  42.586237  31.002735  15.924309
  13408.547  13408.600  0.500  0.319883  42.587857  30.928762  15.850108
  13408.814  13408.900  0.500  0.320224  42.580504  30.912876  15.837570
  13409.136  13409.200  0.500  0.320652  42.579863  30.899170  15.823587
  13409.418  13409.500  0.500  0.321071  42.575742  30.883227  15.807996
  13409.724  13409.800  0.500  0.321710  42.572899  30.861440  15.791654
  13410.030  13410.100  0.500  0.322252  42.568159  30.841308  15.770974
  13410.329  13410.400  0.500  0.322918  42.568299  30.820848  15.755910
  13410.635  13410.700  0.500  0.323248  42.563173  30.806993  15.738630
  13410.925  13411.000  0.500  0.323849  42.560617  30.786628  15.719809
  13411.247  13411.300  0.500  0.324583  42.552055  30.757860  15.695695
  13411.561  13411.600  0.500  0.325193  42.548172  30.736296  15.676282
  13411.875  13411.900  0.500  0.325982  42.546030  30.710507  15.653739
  13412.150  13412.200  0.500  0.326582  42.544889  30.691264  15.632901
  13412.449  13412.500  0.500  0.327384  42.539845  30.663002  15.608835
  13412.747  13412.800  0.500  0.328338  42.541300  30.634826  15.582091
  13413.053  13413.100  0.500  0.329160  42.544634  30.612035  15.559826
  13413.360  13413.400  0.500  0.330157  42.530858  30.571637  15.527232
  13413.650  13413.700  0.500  0.331079  42.528413  30.541718  15.499838
  13413.964  13414.000  0.500  0.332181  42.527668  30.507535  15.465814
  13414.271  13414.300  0.500  0.333360  42.522273  30.467737  15.431214
  13414.577  13414.600  0.500  0.334580  42.515556  30.425782  15.393629
  13414.876  13414.900  0.500  0.335830  42.514192  30.386800  15.358105
  13415.158  13415.200  0.500  0.337227  42.507464  30.339555  15.319418
  13415.457  13415.500  0.500  0.338555  42.502019  30.295415  15.274887
  13415.755  13415.800  0.500  0.340230  42.506779  30.248118  15.233983
  13416.070  13416.100  0.500  0.341871  42.499332  30.193204  15.182835
  13416.360  13416.400  0.500  0.343750  42.498176  30.135731  15.135460
  13416.659  13416.700  0.500  0.345562  42.497128  30.080434  15.084070
  13416.965  13417.000  0.500  0.347536  42.493275  30.018389  15.026126
  13417.280  13417.300  0.500  0.349834  42.487127  29.945142  14.960995
  13417.571  13417.600  0.500  0.352222  42.479325  29.868231  14.894957
  13417.869  13417.900  0.500  0.354695  42.474937  29.791394  14.826409
  13418.160  13418.200  0.500  0.357376  42.600519  29.799456  14.797462
  13418.451  13418.500  0.500  0.360405  42.603445  29.711366  14.715913
  13418.773  13418.800  0.500  0.363655  42.597160  29.610612  14.625411
  13419.064  13419.100  0.500  0.367012  42.592486  29.508133  14.533691
  13419.363  13419.400  0.500  0.370820  42.586818  29.392056  14.431597
  13419.669  13419.700  0.500  0.374538  42.585051  29.281767  14.325989
  13419.976  13420.000  0.500  0.378657  42.579614  29.157685  14.209568
  13420.282  13420.300  0.500  0.383116  42.566686  29.019146  14.081322
  13420.565  13420.600  0.500  0.387422  42.567005  28.894681  13.966609
  13420.864  13420.900  0.500  0.391901  42.561039  28.761503  13.836666
  13421.163  13421.200  0.500  0.396306  42.565343  28.638005  13.709403
  13421.478  13421.500  0.500  0.401235  42.552039  28.488276  13.562342
  13421.768  13421.800  0.500  0.405784  42.553840  28.360193  13.435601
  13422.059  13422.100  0.500  0.410423  42.546022  28.223735  13.300052
  13422.390  13422.400  0.500  0.415756  42.542258  28.071138  13.154482
  13422.689  13422.700  0.500  0.420639  42.543482  27.935208  13.015604
  13422.995  13423.000  0.500  0.425552  42.535336  27.792975  12.878380
  13423.278  13423.300  0.500  0.430465  42.532379  27.654838  12.748697
  13423.585  13423.600  0.500  0.435527  42.524873  27.510337  12.617370
  13423.900  13423.900  0.500  0.440889  42.518386  27.359046  12.477601
  13424.207  13424.200  0.500  0.445760  42.518969  27.226478  12.353092
  13424.498  13424.500  0.500  0.450779  42.508038  27.083213  12.227283
  13424.789  13424.800  0.500  0.455771  42.511687  26.950660  12.109104
  13425.096  13425.100  0.500  0.460815  42.517858  26.818962  11.985814
  13425.403  13425.400  0.500  0.466234  42.501046  26.663469  11.851424
  13425.709  13425.700  0.500  0.471705  42.494576  26.513971  11.721223
  13426.001  13426.000  0.500  0.476456  42.491250  26.386233  11.597635
  13426.292  13426.300  0.500  0.481360  42.490239  26.256515  11.474331
  13426.599  13426.600  0.500  0.486590  42.478280  26.112210  11.333183
  13426.905  13426.900  0.500  0.491749  42.472195  25.974127  11.196746
  13427.212  13427.200  0.500  0.496529  42.471297  25.849707  11.054960
  13427.488  13427.500  0.500  0.501081  42.451055  25.720061  10.914963
  13427.803  13427.800  0.500  0.506015  42.440571  25.587146  10.756939
  13428.102  13428.100  0.500  0.510853  42.421990  25.452485  10.596993
  13428.425  13428.400  0.500  0.515342  42.405611  25.328708  10.431110
  13428.708  13428.700  0.500  0.519407  42.396007  25.220252  10.276683
  13429.007  13429.000  0.500  0.523322  42.391912  25.119275  10.125317
  13429.298  13429.300  0.500  0.527385  42.387607  25.014885  9.960672
  13429.605  13429.600  0.500  0.531086  42.394774  24.926696  9.802473
  13429.905  13429.900  0.500  0.534698  42.394946  24.836920  9.645369
  13430.196  13430.200  0.500  0.537708  42.394297  24.761891  9.500771
  13430.487  13430.500  0.500  0.540842  42.401497  24.688589  9.356842
  13430.810  13430.800  0.500  0.543873  42.411765  24.619838  9.214912
  13431.101  13431.100  0.500  0.546420  42.416297  24.559831  9.087787
  13431.409  13431.400  0.500  0.548756  42.414561  24.501534  8.964456
  13431.700  13431.700  0.500  0.551067  42.408633  24.441569  8.850906
  13431.999  13432.000  0.500  0.553232  42.412701  24.391040  8.746119
  13432.291  13432.300  0.500  0.555102  42.403279  24.340068  8.641423
  13432.590  13432.600  0.500  0.556904  42.403742  24.296505  8.547354
  13432.881  13432.900  0.500  0.558542  42.397082  24.252939  8.463249
  13433.181  13433.200  0.500  0.559937  42.394714  24.217779  8.386046
  13433.488  13433.500  0.500  0.561408  42.386333  24.177397  8.300837
  13433.795  13433.800  0.500  0.562585  42.387366  24.149543  8.228675
  13434.095  13434.100  0.500  0.563905  42.384869  24.116262  8.159735
  13434.394  13434.400  0.500  0.565011  42.372497  24.082571  8.093988
  13434.670  13434.700  0.500  0.565774  42.381737  24.069458  8.039954
  13435.001  13435.000  0.500  0.566809  42.368637  24.037114  7.975031
  13435.292  13435.300  0.500  0.567635  42.367545  24.016660  7.917337
  13435.584  13435.600  0.500  0.568210  42.356239  23.996438  7.863698
  13435.883  13435.900  0.500  0.568877  42.357175  23.980969  7.813344
  13436.183  13436.200  0.500  0.569276  42.351509  23.968198  7.761642
  13436.490  13436.500  0.500  0.569640  42.354757  23.961320  7.714617
  13436.797  13436.800  0.500  0.570157  42.349299  23.945856  7.669770
  13437.089  13437.100  0.500  0.570554  42.346159  23.934557  7.625673
  13437.388  13437.400  0.500  0.570870  42.339320  23.923151  7.584734
  13437.688  13437.700  0.500  0.571070  42.338615  23.917951  7.542560
  13437.995  13438.000  0.500  0.571192  42.336264  23.913704  7.505451
  13438.295  13438.300  0.500  0.571459  42.328247  23.902805  7.467761
  13438.587  13438.600  0.500  0.571517  42.318035  23.895636  7.435748
  13438.918  13438.900  0.500  0.571612  42.315742  23.892072  7.402454
  13439.210  13439.200  0.500  0.571621  42.316966  23.892553  7.371391
  13439.525  13439.500  0.500  0.571700  42.314393  23.889214  7.342618
  13439.809  13439.800  0.500  0.571756  42.314177  23.887760  7.317276
  13440.108  13440.100  0.500  0.572021  42.300462  23.873680  7.291309
  13440.408  13440.400  0.500  0.572071  42.297806  23.870987  7.266613
  13440.700  13440.700  0.500  0.572369  42.302669  23.866619  7.245493
  13441.007  13441.000  0.500  0.572608  42.301882  23.860470  7.223858
  13441.307  13441.300  0.500  0.572866  42.281518  23.842853  7.201004
  13441.599  13441.600  0.500  0.573202  42.281274  23.834702  7.179340
  13441.907  13441.900  0.500  0.573653  42.275428  23.820656  7.157134
  13442.214  13442.200  0.500  0.574048  42.273355  23.810087  7.137972
  13442.514  13442.500  0.500  0.574474  42.272606  23.799508  7.119554
  13442.798  13442.800  0.500  0.575044  42.283446  23.792049  7.103669
  13443.113  13443.100  0.500  0.575642  42.261620  23.765549  7.078666
  13443.397  13443.400  0.500  0.576375  42.251909  23.742675  7.058266
  13443.603  13443.600  0.500  0.576824  42.257592  23.735229  7.045450
  13444.620  13444.590  0.500  0.579065  42.249286  23.677440  6.985248
  13445.607  13445.590  0.500  0.580862  42.242897  23.631360  6.939311
  13446.625  13446.610  0.500  0.582483  42.236653  23.589577  6.914420
  13447.683  13447.660  0.500  0.583558  42.213587  23.551366  6.910151
  13448.733  13448.720  0.500  0.584107  42.197192  23.529306  6.929377
  13449.799  13449.800  0.500  0.584407  42.173500  23.509033  6.966011
  13450.897  13450.900  0.500  0.584468  42.180390  23.511451  7.016067
  13452.026  13452.020  0.500  0.584495  42.169566  23.504787  7.071735
  13453.188  13453.160  0.500  0.583811  42.165070  23.518344  7.133101
  13454.325  13454.310  0.500  0.582703  42.158220  23.540594  7.192154
  13455.503  13455.490  0.500  0.581542  42.138779  23.557076  7.241841
  13456.696  13456.680  0.500  0.580465  42.130824  23.578012  7.284716
  13457.906  13457.900  0.500  0.580237  42.115515  23.574823  7.308695
  13459.148  13459.130  0.500  0.580242  42.113296  23.573458  7.323526
  13460.397  13460.380  0.500  0.580684  42.086753  23.548197  7.320109
  13461.671  13461.650  0.500  0.581298  42.078334  23.529037  7.315155
  13462.945  13462.940  0.500  0.582069  42.065108  23.503508  7.306038
  13464.258  13464.250  0.500  0.582541  42.047004  23.482295  7.297980
  13465.564  13465.580  0.500  0.582774  42.048277  23.477535  7.296925
  13466.934  13466.930  0.500  0.582833  42.014035  23.457048  7.288309
  13468.335  13468.300  0.500  0.582246  42.004704  23.465602  7.290285
  13469.682  13469.680  0.500  0.581562  41.988156  23.472414  7.292709
  13471.107  13471.090  0.500  0.580608  41.939649  23.467677  7.291303
  13472.541  13472.510  0.500  0.580179  41.961752  23.490111  7.300336
  13473.968  13473.950  0.500  0.579981  41.957582  23.492421  7.304495
  13475.403  13475.410  0.500  0.580138  41.943490  23.480863  7.304391
  13476.893  13476.890  0.500  0.580561  41.906389  23.450160  7.296928
  13478.384  13478.390  0.500  0.581319  41.856366  23.404429  7.281297
  13479.907  13479.910  0.500  0.581907  41.860870  23.393168  7.276978
  13481.470  13481.450  0.500  0.582302  41.613816  23.245928  7.224158
  13483.009  13483.010  0.500  0.582404  41.717710  23.301600  7.229099
  13484.613  13484.580  0.500  0.582599  41.833049  23.361461  7.229493
  13486.193  13486.180  0.500  0.582727  41.840221  23.362465  7.208382
  13487.805  13487.790  0.500  0.582496  41.847087  23.371707  7.186392
  13489.425  13489.430  0.500  0.582149  41.831449  23.371090  7.164149
  13491.086  13491.080  0.500  0.581811  41.809467  23.366706  7.140646
  13492.747  13492.750  0.500  0.581446  41.742534  23.337794  7.115063
  13494.472  13494.440  0.500  0.581060  41.782096  23.368932  7.114423
  13496.173  13496.150  0.500  0.580385  41.759917  23.372306  7.109340
  13497.891  13497.880  0.500  0.579908  41.739935  23.372278  7.107458
  13499.625  13499.630  0.500  0.579360  41.703645  23.364752  7.107090
  13501.384  13501.390  0.500  0.579085  41.701894  23.370198  7.115311
  13503.191  13503.180  0.500  0.578728  41.681019  23.366842  7.121346
  13505.006  13504.980  0.500  0.578623  41.668663  23.362372  7.132711
  13506.829  13506.810  0.500  0.578303  41.648696  23.358647  7.141603
  13508.654  13508.650  0.500  0.578125  41.631186  23.352984  7.153959
  13510.518  13510.510  0.500  0.577982  41.603748  23.340924  7.161279
  13512.383  13512.390  0.500  0.578015  41.589943  23.332401  7.169186
  13514.273  13514.290  0.500  0.577688  41.567702  23.327568  7.177753
  13516.227  13516.210  0.500  0.577446  41.541653  23.318589  7.184597
  13518.189  13518.150  0.500  0.577322  41.514761  23.306371  7.190018
  13520.144  13520.110  0.500  0.577247  41.488170  23.293203  7.196846
  13522.092  13522.080  0.500  0.577222  41.473086  23.285302  7.202810
  13524.080  13524.080  0.500  0.577123  41.455173  23.277553  7.209271
  13526.092  13526.090  0.500  0.576974  41.429414  23.266567  7.215652
  13528.145  13528.120  0.500  0.576710  41.396828  23.254399  7.219342
  13530.215  13530.180  0.500  0.576472  41.385087  23.253333  7.227109
  13532.270  13532.250  0.500  0.576274  41.359223  23.243398  7.232237
  13534.365  13534.340  0.500  0.575954  41.323747  23.230912  7.234993
  13536.445  13536.450  0.500  0.575611  41.231477  23.186976  7.225560
  13538.573  13538.580  0.500  0.575233  40.487396  22.777144  7.101457
  13540.734  13540.720  0.500  0.574913  41.008133  23.077491  7.198867
  13542.896  13542.890  0.500  0.574438  41.302860  23.254381  7.254751
  13545.106  13545.080  0.500  0.574283  41.287896  23.249557  7.254503
  13547.278  13547.280  0.500  0.573875  41.257195  23.241766  7.251197
  13549.498  13549.500  0.500  0.573681  41.230434  23.231191  7.246395
  13551.766  13551.750  0.500  0.573411  41.193852  23.216839  7.238426
  13554.036  13554.010  0.500  0.572992  41.152844  23.203463  7.230554
  13556.314  13556.290  0.500  0.572939  40.869348  23.044831  7.178747
  13558.610  13558.590  0.500  0.572743  40.704001  22.956103  7.147809
  13560.906  13560.910  0.500  0.572591  41.144183  23.207873  7.225653
  13563.275  13563.250  0.500  0.572180  41.109770  23.197995  7.219857
  13565.621  13565.600  0.500  0.571946  40.991637  23.136743  7.199334
  13568.016  13567.980  0.500  0.571696  40.949169  23.118559  7.195444
  13570.395  13570.370  0.500  0.571246  41.022716  23.170498  7.214811
  13572.816  13572.790  0.500  0.570926  40.951516  23.137686  7.206180
  13575.246  13575.220  0.500  0.570625  40.326024  22.791151  7.101255
  13577.692  13577.670  0.500  0.570300  40.916840  23.132569  7.211321
  13580.172  13580.150  0.500  0.569933  40.975455  23.174209  7.226516
  13582.661  13582.640  0.500  0.569669  40.941061  23.160881  7.225739
  13585.142  13585.150  0.500  0.569427  40.907704  23.147606  7.223727
  13587.689  13587.670  0.500  0.569323  40.877533  23.132932  7.222339
  13590.261  13590.220  0.500  0.569134  40.827149  23.108804  7.218117
  13592.810  13592.790  0.500  0.568905  40.519179  22.939732  7.167492
  13595.376  13595.370  0.500  0.568911  40.139163  22.724443  7.104536
  13597.975  13597.980  0.500  0.568525  40.756095  23.082632  7.219798
  13600.624  13600.600  0.500  0.568151  40.786818  23.108673  7.235382
  13603.274  13603.250  0.500  0.567928  40.742893  23.088938  7.234613
  13605.933  13605.910  0.500  0.567741  40.704652  23.071565  7.238062
  13608.593  13608.590  0.500  0.567431  40.697374  23.074603  7.249208
  13611.302  13611.290  0.500  0.567078  40.665948  23.064914  7.253523
  13614.029  13614.010  0.500  0.566703  40.620827  23.047973  7.257256
  13616.765  13616.750  0.500  0.566154  40.627104  23.064189  7.271775
  13619.494  13619.500  0.500  0.565893  40.592735  23.050708  7.274099
  13622.314  13622.280  0.500  0.565357  40.550923  23.039304  7.277576
  13625.094  13625.070  0.500  0.564621  40.609468  23.089556  7.298032
  13627.923  13627.890  0.500  0.564274  40.677778  23.136424  7.318661
  13630.738  13630.720  0.500  0.563895  40.617184  23.110713  7.312766
  13633.578  13633.570  0.500  0.563591  40.609592  23.113409  7.313623
  13636.485  13636.450  0.500  0.563335  40.584238  23.104901  7.308794
  13639.376  13639.340  0.500  0.563007  40.556286  23.096553  7.304934
  13642.252  13642.250  0.500  0.562833  40.531914  23.086707  7.300564
  13645.163  13645.170  0.500  0.562628  40.496439  23.071217  7.293225
  13648.155  13648.120  0.500  0.562484  40.464539  23.056363  7.287863
  13651.117  13651.090  0.500  0.562344  40.404576  23.025435  7.278203
  13654.088  13654.070  0.500  0.562225  40.225413  22.926064  7.248221
  13657.093  13657.080  0.500  0.562225  40.389332  23.019487  7.281406
  13660.123  13660.100  0.500  0.561891  40.362319  23.011772  7.281386
  13663.180  13663.150  0.500  0.561661  40.333767  23.000777  7.281894
  13666.213  13666.210  0.500  0.561343  40.303575  22.990866  7.283749
  13669.305  13669.290  0.500  0.561109  40.277631  22.981451  7.287642
  13672.431  13672.390  0.500  0.560755  40.244906  22.970916  7.288684
  13675.525  13675.510  0.500  0.560326  40.216676  22.964646  7.291434
  13678.654  13678.650  0.500  0.559863  40.187299  22.958501  7.293889
  13681.817  13681.800  0.500  0.559398  40.159807  22.953466  7.295668
  13684.998  13684.980  0.500  0.558860  40.124713  22.945753  7.297113
  13688.164  13688.170  0.500  0.558450  40.093037  22.937031  7.294145
  13691.397  13691.390  0.500  0.557822  40.065528  22.935702  7.297253
  13694.647  13694.620  0.500  0.557501  40.027886  22.921495  7.294188
  13697.883  13697.870  0.500  0.556941  39.997196  22.916748  7.296484
  13701.162  13701.150  0.500  0.556718  39.970045  22.906310  7.295820
  13704.458  13704.440  0.500  0.556241  39.941146  22.900656  7.298543
  13707.789  13707.750  0.500  0.555769  39.916005  22.897051  7.300566
  13711.081  13711.070  0.500  0.555661  39.877202  22.877272  7.301671
  13714.423  13714.420  0.500  0.555266  39.848299  22.869713  7.305367
  13717.808  13717.790  0.500  0.555011  39.815646  22.856809  7.311068
  13721.187  13721.170  0.500  0.554711  39.787282  22.847387  7.313381
  13724.592  13724.580  0.500  0.554454  39.761042  22.838171  7.319606
  13728.039  13728.000  0.500  0.554135  39.718534  22.821031  7.319261
  13731.473  13731.450  0.500  0.553949  39.694627  22.811550  7.322487
  13734.907  13734.910  0.500  0.553441  39.657668  22.801878  7.324880
  13738.426  13738.390  0.500  0.553113  39.631199  22.794140  7.328263
  13741.906  13741.890  0.500  0.552552  39.589904  22.783177  7.327732
  13745.437  13745.410  0.500  0.552220  39.553894  22.770015  7.328853
  13748.969  13748.950  0.500  0.551791  39.524940  22.763095  7.330827
  13752.521  13752.500  0.500  0.551309  39.483496  22.750195  7.328465
  13756.082  13756.080  0.500  0.550673  39.454086  22.747720  7.331915
  13759.719  13759.680  0.500  0.550340  39.414649  22.732543  7.331151
  13763.317  13763.290  0.500  0.549759  39.382634  22.727290  7.333246
  13766.934  13766.920  0.500  0.549317  39.353743  22.720646  7.333968
  13770.602  13770.580  0.500  0.548843  39.318016  22.710785  7.334597
  13774.289  13774.250  0.500  0.548461  39.288064  22.702155  7.337066
  13777.961  13777.940  0.500  0.547875  39.247987  22.692297  7.337790
  13781.676  13781.650  0.500  0.547396  39.218249  22.685948  7.341541
  13785.410  13785.380  0.500  0.547083  39.176654  22.668981  7.341414
  13789.130  13789.120  0.500  0.546624  39.151206  22.664673  7.345581
  13792.910  13792.890  0.500  0.546193  39.108811  22.649891  7.347230
  13796.741  13796.680  0.500  0.545910  39.065048  22.630948  7.347339
  13800.484  13800.480  0.500  0.545541  39.034015  22.621322  7.350828
  13804.328  13804.310  0.500  0.545106  38.996354  22.609330  7.351066
  13808.208  13808.150  0.500  0.544756  38.969579  22.601709  7.353930
  13812.023  13812.010  0.500  0.544279  38.926299  22.587369  7.353636
  13815.908  13815.890  0.500  0.543861  38.867160  22.562485  7.350907
  13819.836  13819.790  0.500  0.543418  38.862755  22.569916  7.360513
  13823.724  13823.710  0.500  0.543030  38.818430  22.552928  7.359842
  13827.690  13827.650  0.500  0.542348  38.774457  22.542754  7.360981
  13831.634  13831.610  0.500  0.542015  38.743199  22.532081  7.364524
  13835.588  13835.580  0.500  0.541366  38.688667  22.514975  7.363286
  13839.594  13839.580  0.500  0.540929  38.666662  22.512006  7.368907
  13843.628  13843.590  0.500  0.540359  38.624872  22.500493  7.370951
  13847.639  13847.630  0.500  0.539922  38.578228  22.483144  7.372034
  13851.728  13851.680  0.500  0.539204  38.525847  22.468756  7.373271
  13855.785  13855.750  0.500  0.538770  38.458981  22.439487  7.371149
  13859.854  13859.840  0.500  0.538254  38.452253  22.447136  7.380892
  13863.992  13863.950  0.500  0.537777  38.408166  22.432096  7.382405
  13868.116  13868.080  0.500  0.537270  38.358530  22.414474  7.382455
  13872.259  13872.230  0.500  0.536924  38.289542  22.381915  7.378909
  13876.430  13876.390  0.500  0.536491  38.233466  22.358812  7.376463
  13880.586  13880.580  0.500  0.535976  38.111042  22.298697  7.363129
  13884.788  13884.780  0.500  0.535691  38.034095  22.260013  7.357741
  13889.059  13889.010  0.500  0.535141  37.924714  22.208207  7.344631
  13893.257  13893.250  0.500  0.534564  37.811710  22.154804  7.332251
  13897.542  13897.510  0.500  0.534082  37.736746  22.121560  7.326846
  13901.829  13901.790  0.500  0.533681  37.728432  22.125554  7.332458
  13906.102  13906.090  0.500  0.533345  37.734111  22.136306  7.342584
  13910.438  13910.410  0.500  0.532723  37.667476  22.110983  7.339830
  13914.784  13914.750  0.500  0.532164  37.658499  22.118068  7.347139
  13919.125  13919.110  0.500  0.531635  37.567712  22.076428  7.338750
  13923.544  13923.490  0.500  0.531089  37.558605  22.083111  7.347276
  13927.916  13927.880  0.500  0.530667  37.534803  22.078435  7.350949
  13932.341  13932.300  0.500  0.529978  37.518615  22.084123  7.358830
  13936.786  13936.730  0.500  0.529552  37.491611  22.077638  7.364198
  13941.217  13941.180  0.500  0.528952  37.448748  22.065623  7.366377
  13945.710  13945.650  0.500  0.528496  37.401998  22.048139  7.369032
  13950.181  13950.140  0.500  0.527920  37.365600  22.039368  7.370677
  13954.705  13954.650  0.500  0.527360  37.325311  22.027934  7.375079
  13959.241  13959.180  0.500  0.526788  37.269374  22.007523  7.373989
  13963.798  13963.730  0.500  0.526240  37.210414  21.984743  7.371154
  13968.331  13968.300  0.500  0.525827  37.118097  21.939261  7.363458
  13972.944  13972.880  0.500  0.525433  35.062660  20.732532  6.965601
  13977.518  13977.490  0.500  0.524705  37.124800  21.967851  7.383332
  13982.172  13982.110  0.500  0.524327  37.145501  21.988416  7.397851
  13986.837  13986.760  0.500  0.523803  37.104822  21.975843  7.398740
  13991.497  13991.420  0.500  0.523162  37.052144  21.958708  7.399632
  13996.134  13996.100  0.500  0.522705  37.012529  21.945258  7.402064
  14000.869  14000.800  0.500  0.522143  36.970839  21.932880  7.406099
  14005.589  14005.520  0.500  0.521765  36.928119  21.915820  7.406148
  14010.331  14010.260  0.500  0.521136  36.886975  21.905167  7.411020
  14015.118  14015.010  0.500  0.520539  36.843222  21.892245  7.413076
  14019.797  14019.790  0.500  0.519956  36.794890  21.876286  7.414779
  14024.582  14024.590  0.500  0.519210  36.743685  21.862137  7.416640
  14029.431  14029.400  0.500  0.518869  36.700770  21.844054  7.419443
  14034.240  14034.230  0.500  0.518135  36.656689  21.833838  7.421602
  14039.130  14039.090  0.500  0.517526  36.617020  21.823505  7.425929
  14043.971  14043.960  0.500  0.516975  36.572504  21.808983  7.427604
  14048.902  14048.850  0.500  0.516449  36.533493  21.797177  7.428490
  14053.794  14053.760  0.500  0.515672  36.480847  21.782679  7.430707
  14058.715  14058.690  0.500  0.515295  36.431835  21.761631  7.430443
  14063.674  14063.630  0.500  0.514503  36.367987  21.740704  7.429044
  14068.636  14068.600  0.500  0.514086  36.237369  21.671644  7.413248
  14073.611  14073.590  0.500  0.513640  33.745965  20.190665  6.913110
  14078.641  14078.590  0.500  0.512986  36.349824  21.762817  7.456703
  14083.667  14083.620  0.500  0.512461  36.168716  21.665760  7.431753
  14088.669  14088.660  0.500  0.511986  36.247051  21.723009  7.458362
  14093.763  14093.720  0.500  0.511302  36.191727  21.704685  7.457650
  14098.842  14098.800  0.500  0.510900  36.123291  21.672366  7.456350
  14103.934  14103.900  0.500  0.510205  36.063879  21.651766  7.454941
  14109.056  14109.020  0.500  0.509668  35.884252  21.555489  7.429450
  14114.199  14114.160  0.500  0.508911  35.901257  21.582040  7.446603
  14119.346  14119.320  0.500  0.508112  34.336267  20.657733  7.135496
  14124.540  14124.500  0.500  0.507698  35.988705  21.660855  7.489004
  14129.729  14129.690  0.500  0.507126  35.916167  21.629578  7.486622
  14134.957  14134.910  0.500  0.506600  35.863190  21.609028  7.486257
  14140.163  14140.140  0.500  0.505793  35.812051  21.595651  7.486915
  14145.416  14145.390  0.500  0.505248  35.765659  21.579423  7.491363
  14150.691  14150.660  0.500  0.504764  35.707203  21.554584  7.489138
  14155.961  14155.950  0.500  0.504048  35.616522  21.515247  7.483024
  14161.287  14161.260  0.500  0.503327  35.517238  21.470740  7.474018
  14166.626  14166.590  0.500  0.502658  33.335895  20.165571  7.024936
  14171.979  14171.940  0.500  0.502219  35.568100  21.525325  7.508021
  14177.326  14177.310  0.500  0.501503  35.543282  21.525711  7.514731
  14182.713  14182.690  0.500  0.500996  35.486491  21.502225  7.516919
  14188.130  14188.100  0.500  0.500249  35.433306  21.486045  7.517050
  14193.543  14193.520  0.500  0.499696  35.379675  21.465390  7.517824
  14199.004  14198.970  0.500  0.498918  35.330435  21.452193  7.520524
  14204.451  14204.430  0.500  0.498363  35.282592  21.435026  7.521636
  14209.938  14209.910  0.500  0.497695  35.237911  21.422194  7.525411
  14215.429  14215.410  0.500  0.497246  35.190686  21.403093  7.527421
  14220.960  14220.930  0.500  0.496632  35.141747  21.386445  7.529665
  14226.487  14226.470  0.500  0.496051  35.092432  21.368860  7.530730
  14232.035  14232.020  0.500  0.495333  35.046997  21.356508  7.534087
  14237.623  14237.600  0.500  0.494719  34.995041  21.337959  7.535901
  14243.234  14243.200  0.500  0.494010  34.936407  21.317318  7.538530
  14248.840  14248.810  0.500  0.493461  34.887288  21.299023  7.538885
  14254.468  14254.450  0.500  0.492765  34.830262  21.279024  7.539255
  14260.145  14260.100  0.500  0.492066  34.759613  21.250707  7.535591
  14265.800  14265.770  0.500  0.491524  34.636188  21.186725  7.521415
  14271.487  14271.460  0.500  0.490677  32.420106  19.847975  7.052033
