# XDI/1.0 BlueSky/1.10.0 BMM/2023-1.0-py310-tiled
# Beamline.name: BMM (06BM) -- Beamline for Materials Measurement (NIST)
# Beamline.xray_source: NSLS-II three-pole wiggler
# Beamline.collimation: paraboloid mirror, 5 nm Rh on 30 nm Pt
# Beamline.focusing: not in use
# Beamline.harmonic_rejection: flat mirror, Pt stripe, pitch = 7.0 mrad relative to beam
# Beamline.software: Bluesky 1.10.0, Ophyd 1.7.0, DataBroker 2.0.0b13, Python 3.10.8, 2023-1.0-py310-tiled
# Detector.I0: 10 cm N2
# Detector.I1: 25 cm N2
# Detector.I2: 25 cm N2
# Element.symbol: Bi
# Element.edge: L3
# Element.reference: Bi
# Element.reference_material: BiO2
# Facility.name: NSLS-II
# Facility.energy: 3.0
# Facility.current: 399.7
# Facility.mode: top-off
# Facility.GUP: 301027
# Facility.SAF: 310583
# Facility.cycle: 2023-2
# Mono.name: Si(111)
# Mono.d_spacing: 3.1351860
# Mono.encoder_resolution: 0.0000050 deg/ct
# Mono.angle_offset: 16.0754326 deg
# Mono.scan_mode: pseudo channel cut
# Mono.scan_type: step
# Mono.direction: forward in energy
# Sample.name: Bi2Ce2Ti4O12
# Sample.prep: Powder in PEG pellet
# Sample.x: 145.711 mm
# Sample.y: 114.376 mm
# Sample.SDD_position: 205.000 mm
# Scan.experimenters: Bruce Ravel
# Scan.edge_energy: 13418.6
# Scan.start_time: 2023-06-27T13:49:32
# Scan.end_time: 2023-06-27T13:56:22
# Scan.transient_id: 85132
# Scan.uid: 56efffd2-53d1-4826-ab5b-607eaa8fae14
# Scan.plot_hint: ln(I0/It)  --  ln($5/$6)
# Column.1: energy eV
# Column.2: requested_energy eV
# Column.3: measurement_time seconds
# Column.4: xmu 
# Column.5: I0 nA
# Column.6: It nA
# Column.7: Ir nA
# ///////////
# sample courtesy Martin Stennett, University of Sheffield
# -----------
# energy  requested_energy  measurement_time  xmu  I0  It  Ir
  13218.552  13218.600  0.500  -0.028211  45.011647  46.299574  23.901633
  13228.571  13228.600  0.500  -0.029654  44.912522  46.264283  23.917659
  13238.606  13238.600  0.500  -0.030746  44.825959  46.225572  23.929969
  13248.586  13248.600  0.500  -0.031990  44.709061  46.162442  23.934455
  13258.590  13258.600  0.500  -0.033311  44.570829  46.080545  23.925133
  13268.586  13268.600  0.500  -0.034551  44.365511  45.925167  23.875328
  13278.659  13278.600  0.500  -0.035903  43.771917  45.371991  23.617685
  13288.616  13288.600  0.500  -0.037134  43.610664  45.260533  23.589191
  13298.627  13298.600  0.500  -0.038290  43.537326  45.236710  23.608381
  13308.630  13308.600  0.500  -0.039644  43.437823  45.194444  23.618078
  13318.633  13318.600  0.500  -0.040773  43.365574  45.170271  23.635402
  13328.636  13328.600  0.500  -0.042048  43.209786  45.065389  23.605058
  13338.638  13338.600  0.500  -0.043120  43.170124  45.072315  23.633347
  13348.632  13348.600  0.500  -0.044175  43.101920  45.048636  23.645695
  13358.618  13358.600  0.500  -0.045283  43.027170  45.020349  23.645374
  13368.619  13368.600  0.500  -0.046338  42.916092  44.951529  23.623956
  13378.635  13378.600  0.500  -0.047137  42.818521  44.885183  23.593197
  13388.619  13388.600  0.500  -0.047597  42.736193  44.819471  23.541185
  13390.560  13390.600  0.500  -0.047812  42.711657  44.803399  23.523691
  13392.556  13392.600  0.500  -0.047851  42.823298  44.922255  23.576280
  13394.553  13394.600  0.500  -0.047828  42.795727  44.892314  23.553606
  13396.542  13396.600  0.500  -0.047860  42.774563  44.871520  23.524037
  13398.564  13398.600  0.500  -0.047737  42.754434  44.844892  23.495820
  13400.562  13400.600  0.500  -0.047670  42.732571  44.818984  23.459954
  13402.577  13402.600  0.500  -0.047516  42.713044  44.791587  23.422581
  13404.569  13404.600  0.500  -0.047235  42.697602  44.762793  23.375832
  13406.562  13406.600  0.500  -0.046952  42.668096  44.719233  23.310254
  13408.563  13408.600  0.500  -0.046376  42.660504  44.685509  23.242170
  13408.845  13408.900  0.500  -0.046387  42.653134  44.678282  23.229378
  13409.136  13409.200  0.500  -0.046261  42.655446  44.675083  23.218360
  13409.434  13409.500  0.500  -0.046242  42.648562  44.667027  23.202505
  13409.740  13409.800  0.500  -0.046177  42.651784  44.667479  23.197924
  13410.038  13410.100  0.500  -0.045996  42.645106  44.652422  23.178196
  13410.344  13410.400  0.500  -0.045833  42.646985  44.647126  23.165522
  13410.651  13410.700  0.500  -0.045725  42.643199  44.638317  23.148113
  13410.965  13411.000  0.500  -0.045623  42.640948  44.631398  23.132293
  13411.271  13411.300  0.500  -0.045500  42.637246  44.622032  23.114553
  13411.561  13411.600  0.500  -0.045372  42.626602  44.605194  23.094260
  13411.868  13411.900  0.500  -0.045183  42.622275  44.592231  23.071713
  13412.166  13412.200  0.500  -0.045006  42.624667  44.586843  23.053661
  13412.464  13412.500  0.500  -0.044993  42.613669  44.574751  23.030808
  13412.771  13412.800  0.500  -0.044816  42.614686  44.567935  23.015201
  13413.069  13413.100  0.500  -0.044586  42.611107  44.553946  22.990484
  13413.383  13413.400  0.500  -0.044367  42.604440  44.537233  22.964311
  13413.682  13413.700  0.500  -0.044093  42.607944  44.528669  22.942094
  13413.972  13414.000  0.500  -0.044023  42.598655  44.515863  22.915886
  13414.279  13414.300  0.500  -0.043779  42.595135  44.501335  22.885150
  13414.593  13414.600  0.500  -0.043443  42.595922  44.487194  22.856542
  13414.883  13414.900  0.500  -0.043242  42.594323  44.476585  22.827536
  13415.174  13415.200  0.500  -0.042899  42.589389  44.456165  22.793956
  13415.488  13415.500  0.500  -0.042611  42.582343  44.436019  22.757657
  13415.795  13415.800  0.500  -0.042351  42.577412  44.419350  22.719923
  13416.093  13416.100  0.500  -0.042062  42.574819  44.403796  22.683481
  13416.376  13416.400  0.500  -0.041613  42.564423  44.373045  22.638818
  13416.675  13416.700  0.500  -0.041414  42.573634  44.373800  22.603011
  13416.981  13417.000  0.500  -0.040969  42.556914  44.336635  22.551192
  13417.280  13417.300  0.500  -0.040445  42.555907  44.312351  22.501560
  13417.578  13417.600  0.500  -0.040075  42.557793  44.297928  22.453123
  13417.877  13417.900  0.500  -0.039573  42.551100  44.268754  22.395746
  13418.184  13418.200  0.500  -0.039110  42.541512  44.238285  22.329500
  13418.482  13418.500  0.500  -0.038469  42.542148  44.210570  22.267511
  13418.781  13418.800  0.500  -0.037815  42.541722  44.181252  22.197050
  13419.072  13419.100  0.500  -0.037166  42.531608  44.142067  22.120036
  13419.370  13419.400  0.500  -0.036484  42.525564  44.105728  22.034879
  13419.677  13419.700  0.500  -0.035562  42.522684  44.062101  21.940343
  13419.992  13420.000  0.500  -0.034808  42.517019  44.023023  21.846558
  13420.259  13420.300  0.500  -0.033840  42.515461  43.978804  21.744533
  13420.573  13420.600  0.500  -0.032844  42.508536  43.927860  21.627537
  13420.880  13420.900  0.500  -0.031715  42.501190  43.870696  21.504598
  13421.179  13421.200  0.500  -0.030535  42.502068  43.819867  21.375289
  13421.470  13421.500  0.500  -0.029347  42.503501  43.769338  21.249588
  13421.776  13421.800  0.500  -0.027987  42.492562  43.698580  21.109665
  13422.083  13422.100  0.500  -0.026635  42.485538  43.632357  20.960051
  13422.390  13422.400  0.500  -0.025127  42.486825  43.567901  20.815376
  13422.673  13422.700  0.500  -0.023657  42.481273  43.498214  20.676537
  13422.995  13423.000  0.500  -0.022269  42.483201  43.439867  20.535054
  13423.286  13423.300  0.500  -0.020641  42.463734  43.349352  20.376248
  13423.601  13423.600  0.500  -0.019028  42.465622  43.281409  20.234955
  13423.892  13423.900  0.500  -0.017638  42.457861  43.213384  20.102244
  13424.199  13424.200  0.500  -0.016039  42.460519  43.147053  19.968745
  13424.506  13424.500  0.500  -0.014447  42.455410  43.073225  19.830121
  13424.805  13424.800  0.500  -0.013026  42.450992  43.007576  19.697711
  13425.088  13425.100  0.500  -0.011545  42.457337  42.950352  19.577155
  13425.395  13425.400  0.500  -0.010012  42.447617  42.874720  19.437054
  13425.709  13425.700  0.500  -0.008491  42.440762  42.802666  19.300225
  13426.008  13426.000  0.500  -0.006843  42.441056  42.732471  19.162171
  13426.307  13426.300  0.500  -0.005240  42.432578  42.655513  19.021493
  13426.606  13426.600  0.500  -0.003584  42.431522  42.583849  18.870957
  13426.905  13426.900  0.500  -0.001638  42.422566  42.492129  18.707951
  13427.205  13427.200  0.500  0.000179  42.415865  42.408254  18.539194
  13427.504  13427.500  0.500  0.002400  42.401667  42.300005  18.355500
  13427.795  13427.800  0.500  0.004596  42.394937  42.200540  18.159166
  13428.102  13428.100  0.500  0.007305  42.379583  42.071129  17.940182
  13428.417  13428.400  0.500  0.010154  42.368249  41.940221  17.713922
  13428.692  13428.700  0.500  0.013147  42.349729  41.796608  17.475737
  13428.999  13429.000  0.500  0.016467  42.333106  41.641719  17.220476
  13429.314  13429.300  0.500  0.020340  42.327078  41.474823  16.949435
  13429.605  13429.600  0.500  0.024301  42.331873  41.315570  16.688553
  13429.889  13429.900  0.500  0.028504  42.338191  41.148430  16.426794
  13430.204  13430.200  0.500  0.033182  42.332168  40.950568  16.137952
  13430.503  13430.500  0.500  0.038048  42.326562  40.746373  15.855342
  13430.802  13430.800  0.500  0.042830  42.352297  40.576629  15.603898
  13431.094  13431.100  0.500  0.047683  42.341965  40.370336  15.340041
  13431.393  13431.400  0.500  0.052911  42.356390  40.173544  15.084668
  13431.684  13431.700  0.500  0.057633  42.351252  39.979429  14.844661
  13431.983  13432.000  0.500  0.062385  42.349307  39.788058  14.619555
  13432.298  13432.300  0.500  0.067044  42.353959  39.607477  14.404163
  13432.606  13432.600  0.500  0.071448  42.332654  39.413578  14.187596
  13432.897  13432.900  0.500  0.075526  42.337373  39.257576  14.003311
  13433.181  13433.200  0.500  0.079124  42.332912  39.112456  13.833015
  13433.488  13433.500  0.500  0.082554  42.329179  38.975075  13.666999
  13433.787  13433.800  0.500  0.085547  42.319769  38.849986  13.512375
  13434.079  13434.100  0.500  0.088120  42.313651  38.744544  13.376449
  13434.386  13434.400  0.500  0.090534  42.312160  38.649763  13.246568
  13434.685  13434.700  0.500  0.092642  42.307506  38.564132  13.123897
  13434.993  13435.000  0.500  0.094493  42.303917  38.489564  13.008340
  13435.284  13435.300  0.500  0.095752  42.310854  38.447415  12.910527
  13435.592  13435.600  0.500  0.097044  42.300753  38.388596  12.809433
  13435.891  13435.900  0.500  0.097894  42.286941  38.343468  12.713692
  13436.198  13436.200  0.500  0.098653  42.288011  38.315342  12.630958
  13436.498  13436.500  0.500  0.099421  42.278894  38.277697  12.548204
  13436.797  13436.800  0.500  0.099919  42.276752  38.256695  12.468692
  13437.113  13437.100  0.500  0.100523  42.273619  38.230747  12.391423
  13437.412  13437.400  0.500  0.101046  42.269782  38.207295  12.318556
  13437.696  13437.700  0.500  0.101660  42.273423  38.187129  12.249927
  13438.003  13438.000  0.500  0.102348  42.256417  38.145499  12.177682
  13438.319  13438.300  0.500  0.103143  42.256812  38.115573  12.107614
  13438.602  13438.600  0.500  0.104028  42.249435  38.075176  12.043119
  13438.902  13438.900  0.500  0.105053  42.244719  38.031959  11.976404
  13439.210  13439.200  0.500  0.106295  42.237685  37.978419  11.910506
  13439.501  13439.500  0.500  0.107525  42.233368  37.927865  11.849577
  13439.801  13439.800  0.500  0.108783  42.233664  37.880445  11.790681
  13440.116  13440.100  0.500  0.110343  42.238866  37.826048  11.734248
  13440.424  13440.400  0.500  0.111849  42.223060  37.754988  11.672569
  13440.700  13440.700  0.500  0.113364  42.222135  37.697017  11.620179
  13441.000  13441.000  0.500  0.114945  42.217994  37.633742  11.568540
  13441.315  13441.300  0.500  0.116487  42.226406  37.583253  11.518343
  13441.615  13441.600  0.500  0.117970  42.216230  37.518518  11.466602
  13441.899  13441.900  0.500  0.119537  42.205847  37.450567  11.420973
  13442.191  13442.200  0.500  0.120882  42.217165  37.410247  11.383527
  13442.490  13442.500  0.500  0.122216  42.200553  37.345676  11.335314
  13442.798  13442.800  0.500  0.123458  42.206162  37.304291  11.297135
  13443.098  13443.100  0.500  0.124388  42.189310  37.254737  11.259060
  13443.390  13443.400  0.500  0.125447  42.185683  37.212098  11.222017
  13443.595  13443.600  0.500  0.126115  42.185723  37.187278  11.200383
  13444.581  13444.590  0.500  0.127523  42.171981  37.122871  11.108638
  13445.591  13445.590  0.500  0.127532  42.162377  37.114079  11.049689
  13446.609  13446.610  0.500  0.126035  42.159020  37.166712  11.032150
  13447.667  13447.660  0.500  0.123495  42.140974  37.245275  11.058461
  13448.733  13448.720  0.500  0.120461  42.137036  37.354965  11.128206
  13449.823  13449.800  0.500  0.117155  42.113768  37.457968  11.219175
  13450.912  13450.900  0.500  0.114330  42.092068  37.544575  11.324997
  13452.050  13452.020  0.500  0.111968  42.103763  37.643846  11.447568
  13453.188  13453.160  0.500  0.109749  42.080822  37.706881  11.558667
  13454.325  13454.310  0.500  0.107797  42.077940  37.777996  11.669531
  13455.503  13455.490  0.500  0.106264  42.064180  37.823568  11.759562
  13456.681  13456.680  0.500  0.104818  42.049686  37.865263  11.835046
  13457.890  13457.900  0.500  0.103653  42.034693  37.895887  11.890052
  13459.148  13459.130  0.500  0.102918  42.025503  37.915443  11.923533
  13460.405  13460.380  0.500  0.102611  42.007571  37.910913  11.934137
  13461.671  13461.650  0.500  0.102720  42.007863  37.907043  11.933242
  13462.960  13462.940  0.500  0.102976  41.995492  37.886190  11.926670
  13464.282  13464.250  0.500  0.103130  41.967896  37.855457  11.915671
  13465.612  13465.580  0.500  0.103101  41.954552  37.844509  11.908364
  13466.934  13466.930  0.500  0.103014  41.942724  37.837130  11.904986
  13468.303  13468.300  0.500  0.102761  41.930787  37.835928  11.904185
  13469.689  13469.680  0.500  0.102311  41.899197  37.824463  11.900283
  13471.115  13471.090  0.500  0.101786  41.850735  37.800536  11.894573
  13472.518  13472.510  0.500  0.101547  41.867775  37.824957  11.904767
  13473.976  13473.950  0.500  0.101589  41.870772  37.826081  11.912870
  13475.426  13475.410  0.500  0.101791  41.863931  37.812275  11.913031
  13476.909  13476.890  0.500  0.102150  41.830262  37.768296  11.901740
  13478.392  13478.390  0.500  0.103037  41.779915  37.689376  11.877539
  13479.907  13479.910  0.500  0.104275  41.783921  37.646391  11.860396
  13481.462  13481.450  0.500  0.105592  41.591293  37.423483  11.778808
  13483.025  13483.010  0.500  0.107167  41.567967  37.343665  11.734184
  13484.605  13484.580  0.500  0.108763  41.739744  37.438159  11.734813
  13486.201  13486.180  0.500  0.110075  41.757918  37.405353  11.691660
  13487.805  13487.790  0.500  0.110960  41.768082  37.381353  11.643753
  13489.449  13489.430  0.500  0.111428  41.745507  37.343675  11.592809
  13491.070  13491.080  0.500  0.111668  41.729149  37.320086  11.547950
  13492.755  13492.750  0.500  0.111616  41.683689  37.281383  11.508963
  13494.456  13494.440  0.500  0.111122  41.676373  37.293249  11.494481
  13496.157  13496.150  0.500  0.110457  41.676752  37.318390  11.492596
  13497.915  13497.880  0.500  0.109355  41.661034  37.345453  11.497280
  13499.641  13499.630  0.500  0.108034  41.627515  37.364732  11.504142
  13501.392  13501.390  0.500  0.106687  41.629020  37.416459  11.529902
  13503.183  13503.180  0.500  0.105481  41.618103  37.451773  11.555393
  13504.990  13504.980  0.500  0.104290  41.591016  37.472005  11.578120
  13506.837  13506.810  0.500  0.103502  41.568794  37.481502  11.602178
  13508.678  13508.650  0.500  0.102796  41.548784  37.489941  11.626154
  13510.542  13510.510  0.500  0.102268  41.527159  37.490191  11.642301
  13512.399  13512.390  0.500  0.101909  41.510613  37.488734  11.660272
  13514.297  13514.290  0.500  0.101551  41.492829  37.486064  11.675078
  13516.219  13516.210  0.500  0.101152  41.475590  37.485439  11.691736
  13518.181  13518.150  0.500  0.100797  41.450141  37.475754  11.702770
  13520.128  13520.110  0.500  0.100458  41.422194  37.463185  11.715145
  13522.084  13522.080  0.500  0.100228  41.404453  37.455771  11.728424
  13524.088  13524.080  0.500  0.100045  41.384994  37.445008  11.741002
  13526.100  13526.090  0.500  0.099696  41.355473  37.431356  11.749691
  13528.137  13528.120  0.500  0.099525  41.460235  37.532591  11.794686
  13530.207  13530.180  0.500  0.099289  41.450067  37.532230  11.806644
  13532.270  13532.250  0.500  0.099213  41.424612  37.512061  11.811270
  13534.349  13534.340  0.500  0.099051  41.393637  37.490079  11.818456
  13536.453  13536.450  0.500  0.098803  41.317214  37.430132  11.808247
  13538.597  13538.580  0.500  0.098642  40.619067  36.803608  11.617000
  13540.742  13540.720  0.500  0.098419  40.948422  37.110273  11.719090
  13542.912  13542.890  0.500  0.098028  41.374727  37.511312  11.848703
  13545.090  13545.080  0.500  0.097790  41.344437  37.492778  11.842744
  13547.286  13547.280  0.500  0.097533  41.320590  37.480783  11.835374
  13549.506  13549.500  0.500  0.097437  41.291606  37.458082  11.825109
  13551.774  13551.750  0.500  0.097445  41.263102  37.431899  11.813821
  13554.036  13554.010  0.500  0.097455  41.223181  37.395308  11.797578
  13556.306  13556.290  0.500  0.097526  41.031274  37.218580  11.734883
  13558.578  13558.590  0.500  0.097653  40.641702  36.860554  11.620320
  13560.930  13560.910  0.500  0.097808  41.193853  37.355530  11.771145
  13563.259  13563.250  0.500  0.097706  41.180248  37.347023  11.764246
  13565.629  13565.600  0.500  0.097533  41.087074  37.268933  11.739703
  13567.991  13567.980  0.500  0.097240  40.986342  37.188480  11.715291
  13570.387  13570.370  0.500  0.096818  41.094823  37.302648  11.754450
  13572.800  13572.790  0.500  0.096379  41.030919  37.260999  11.746350
  13575.254  13575.220  0.500  0.095864  40.452735  36.754836  11.592002
  13577.668  13577.670  0.500  0.095305  40.912201  37.193103  11.735159
  13580.156  13580.150  0.500  0.094923  41.048833  37.331567  11.784125
  13582.669  13582.640  0.500  0.094352  41.010780  37.318251  11.785031
  13585.174  13585.150  0.500  0.093908  40.975572  37.302781  11.783124
  13587.673  13587.670  0.500  0.093413  40.944884  37.293317  11.784462
  13590.237  13590.220  0.500  0.092816  40.892011  37.267390  11.782316
  13592.802  13592.790  0.500  0.092451  40.642374  37.053386  11.720092
  13595.392  13595.370  0.500  0.091831  40.246455  36.715200  11.617782
  13597.975  13597.980  0.500  0.091228  40.770976  37.216127  11.782496
  13600.600  13600.600  0.500  0.090733  40.843210  37.300542  11.820363
  13603.274  13603.250  0.500  0.090206  40.808372  37.288353  11.828746
  13605.933  13605.910  0.500  0.089813  40.767169  37.265365  11.834081
  13608.601  13608.590  0.500  0.089584  40.766422  37.273191  11.852630
  13611.294  13611.290  0.500  0.089116  40.725017  37.252778  11.857658
  13614.021  13614.010  0.500  0.088935  40.685795  37.223642  11.864077
  13616.781  13616.750  0.500  0.088561  40.675850  37.228452  11.879124
  13619.502  13619.500  0.500  0.088235  40.658501  37.224706  11.886724
  13622.306  13622.280  0.500  0.088023  40.600091  37.179103  11.885758
  13625.102  13625.070  0.500  0.088024  40.607781  37.186133  11.899271
  13627.915  13627.890  0.500  0.087639  40.578317  37.173458  11.898960
  13630.714  13630.720  0.500  0.087550  40.528885  37.131490  11.890428
  13633.586  13633.570  0.500  0.087513  40.524765  37.129056  11.891303
  13636.460  13636.450  0.500  0.087236  40.497146  37.114057  11.883669
  13639.344  13639.340  0.500  0.087049  40.468839  37.095045  11.874943
  13642.261  13642.250  0.500  0.086790  40.446273  37.083977  11.867435
  13645.195  13645.170  0.500  0.086323  40.415140  37.072734  11.861172
  13648.147  13648.120  0.500  0.085916  40.380268  37.055810  11.852602
  13651.101  13651.090  0.500  0.085433  40.342881  37.039393  11.846806
  13654.088  13654.070  0.500  0.085073  40.092083  36.822367  11.782590
  13657.109  13657.080  0.500  0.084630  40.321279  37.049293  11.857802
  13660.099  13660.100  0.500  0.084242  40.287297  37.032443  11.859119
  13663.171  13663.150  0.500  0.083944  40.252246  37.011233  11.860005
  13666.246  13666.210  0.500  0.083609  40.219709  36.993729  11.861210
  13669.321  13669.290  0.500  0.083339  40.192185  36.978398  11.865550
  13672.390  13672.390  0.500  0.082938  40.171143  36.973855  11.872773
  13675.534  13675.510  0.500  0.082512  40.141979  36.962748  11.875851
  13678.695  13678.650  0.500  0.082141  40.099931  36.937750  11.873740
  13681.817  13681.800  0.500  0.081744  40.067022  36.922065  11.872950
  13684.998  13684.980  0.500  0.081472  40.040536  36.907691  11.873994
  13688.213  13688.170  0.500  0.080976  40.009479  36.897368  11.875088
  13691.405  13691.390  0.500  0.080496  39.977341  36.885422  11.873148
  13694.631  13694.620  0.500  0.080155  39.955317  36.877683  11.874712
  13697.891  13697.870  0.500  0.079671  39.917518  36.860632  11.873172
  13701.195  13701.150  0.500  0.079232  39.885940  36.847643  11.875320
  13704.450  13704.440  0.500  0.078655  39.849102  36.834856  11.877698
  13707.765  13707.750  0.500  0.078274  39.828517  36.829881  11.882364
  13711.097  13711.070  0.500  0.077725  39.791654  36.815994  11.889688
  13714.456  13714.420  0.500  0.077327  39.761782  36.803004  11.896340
  13717.792  13717.790  0.500  0.076953  39.736969  36.793804  11.904885
  13721.228  13721.170  0.500  0.076445  39.705714  36.783545  11.913847
  13724.608  13724.580  0.500  0.076083  39.673744  36.767203  11.920564
  13728.007  13728.000  0.500  0.075588  39.649564  36.762988  11.930878
  13731.473  13731.450  0.500  0.075281  39.612366  36.739801  11.933887
  13734.940  13734.910  0.500  0.074673  39.577199  36.729513  11.938463
  13738.402  13738.390  0.500  0.074334  39.548251  36.715087  11.941405
  13741.931  13741.890  0.500  0.074050  39.518017  36.697439  11.942736
  13745.437  13745.410  0.500  0.073622  39.479007  36.676881  11.942565
  13748.969  13748.950  0.500  0.073194  39.440190  36.656523  11.942255
  13752.512  13752.500  0.500  0.072879  39.399352  36.630084  11.939112
  13756.131  13756.080  0.500  0.072390  39.373483  36.623947  11.943964
  13759.703  13759.680  0.500  0.071991  39.344318  36.611445  11.946003
  13763.317  13763.290  0.500  0.071476  39.299986  36.589003  11.943128
  13766.959  13766.920  0.500  0.071079  39.269213  36.574895  11.945000
  13770.610  13770.580  0.500  0.070524  39.238425  36.566489  11.946519
  13774.264  13774.250  0.500  0.070056  39.198709  36.546589  11.948827
  13777.985  13777.940  0.500  0.069429  39.161662  36.534945  11.949366
  13781.676  13781.650  0.500  0.069123  39.130628  36.517184  11.955970
  13785.410  13785.380  0.500  0.068572  39.089332  36.498732  11.957552
  13789.155  13789.120  0.500  0.068128  39.060097  36.487618  11.963911
  13792.901  13792.890  0.500  0.067580  39.021116  36.471199  11.969876
  13796.683  13796.680  0.500  0.067131  38.989199  36.457744  11.971747
  13800.509  13800.480  0.500  0.066603  38.948647  36.439047  11.976010
  13804.337  13804.310  0.500  0.065994  38.915738  36.430445  11.981555
  13808.191  13808.150  0.500  0.065529  38.881892  36.415702  11.987054
  13812.048  13812.010  0.500  0.065053  38.847024  36.400366  11.988464
  13815.908  13815.890  0.500  0.064487  38.784535  36.362362  11.983991
  13819.836  13819.790  0.500  0.063979  38.772524  36.369590  11.997408
  13823.758  13823.710  0.500  0.063564  38.742914  36.356907  12.002139
  13827.657  13827.650  0.500  0.062988  38.695811  36.333627  12.002778
  13831.667  13831.610  0.500  0.062492  38.657432  36.315592  12.004256
  13835.629  13835.580  0.500  0.061894  38.609519  36.292283  12.006438
  13839.611  13839.580  0.500  0.061459  38.594660  36.294092  12.017606
  13843.644  13843.590  0.500  0.060991  38.550187  36.269246  12.019306
  13847.731  13847.630  0.500  0.060413  38.506341  36.248928  12.023185
  13851.677  13851.680  0.500  0.059928  38.459674  36.222558  12.022961
  13855.752  13855.750  0.500  0.059352  38.385795  36.173802  12.019628
  13859.862  13859.840  0.500  0.058888  38.381068  36.186163  12.035063
  13863.984  13863.950  0.500  0.058317  38.329646  36.158297  12.034492
  13868.108  13868.080  0.500  0.057758  38.282425  36.133953  12.036398
  13872.259  13872.230  0.500  0.057186  38.213203  36.089247  12.032366
  13876.413  13876.390  0.500  0.056770  38.153162  36.047537  12.031181
  13880.603  13880.580  0.500  0.056331  38.040365  35.956733  12.008894
  13884.813  13884.780  0.500  0.055888  37.964548  35.900995  11.998937
  13889.042  13889.010  0.500  0.055336  37.852064  35.814378  11.978909
  13893.274  13893.250  0.500  0.054708  37.738112  35.728998  11.959480
  13897.550  13897.510  0.500  0.054179  37.650088  35.664518  11.946317
  13901.838  13901.790  0.500  0.053662  37.651773  35.684543  11.961623
  13906.119  13906.090  0.500  0.053055  37.657266  35.711419  11.977603
  13910.429  13910.410  0.500  0.052538  37.589414  35.665537  11.971179
  13914.775  13914.750  0.500  0.051906  37.587257  35.686040  11.988217
  13919.150  13919.110  0.500  0.051456  37.496447  35.615814  11.972967
  13923.502  13923.490  0.500  0.050927  37.488012  35.626653  11.987629
  13927.899  13927.880  0.500  0.050391  37.463134  35.622102  11.995706
  13932.332  13932.300  0.500  0.049838  37.448521  35.627917  12.008683
  13936.744  13936.730  0.500  0.049233  37.415908  35.618417  12.015711
  13941.200  13941.180  0.500  0.048772  37.380732  35.601359  12.021287
  13945.693  13945.650  0.500  0.048238  37.330541  35.572536  12.023653
  13950.172  13950.140  0.500  0.047606  37.294192  35.560375  12.028403
  13954.688  13954.650  0.500  0.047008  37.252730  35.542093  12.031790
  13959.199  13959.180  0.500  0.046521  37.197851  35.507007  12.029159
  13963.755  13963.730  0.500  0.045871  37.137750  35.472697  12.028411
  13968.331  13968.300  0.500  0.045359  37.045655  35.402854  12.013680
  13972.893  13972.880  0.500  0.044853  35.434790  33.880539  11.507095
  13977.510  13977.490  0.500  0.044285  37.019196  35.415580  12.039552
  13982.172  13982.110  0.500  0.043698  37.070193  35.485199  12.072813
  13986.786  13986.760  0.500  0.042933  37.027439  35.471391  12.076961
  13991.437  13991.420  0.500  0.042394  36.983030  35.447944  12.079727
  13996.134  13996.100  0.500  0.041956  36.938647  35.420923  12.082478
  14000.852  14000.800  0.500  0.041292  36.893192  35.400837  12.085051
  14005.555  14005.520  0.500  0.040673  36.850426  35.381676  12.090601
  14010.279  14010.260  0.500  0.040101  36.811782  35.364793  12.095214
  14015.075  14015.010  0.500  0.039528  36.766218  35.341288  12.099143
  14019.840  14019.790  0.500  0.038980  36.723882  35.319936  12.103113
  14024.616  14024.590  0.500  0.038414  36.673613  35.291531  12.105301
  14029.439  14029.400  0.500  0.037645  36.632612  35.279196  12.112602
  14034.265  14034.230  0.500  0.037228  36.593718  35.256441  12.116565
  14039.104  14039.090  0.500  0.036616  36.548110  35.234061  12.119812
  14043.971  14043.960  0.500  0.035990  36.504314  35.213896  12.124112
  14048.877  14048.850  0.500  0.035483  36.463734  35.192583  12.126597
  14053.785  14053.760  0.500  0.034795  36.413082  35.167885  12.130067
  14058.715  14058.690  0.500  0.034175  36.360279  35.138657  12.131845
