# XDI/1.0 BlueSky/1.10.0 BMM/2023-1.0-py310-tiled
# Beamline.name: BMM (06BM) -- Beamline for Materials Measurement (NIST)
# Beamline.xray_source: NSLS-II three-pole wiggler
# Beamline.collimation: paraboloid mirror, 5 nm Rh on 30 nm Pt
# Beamline.focusing: not in use
# Beamline.harmonic_rejection: flat mirror, Pt stripe, pitch = 7.0 mrad relative to beam
# Beamline.software: Bluesky 1.10.0, Ophyd 1.7.0, DataBroker 2.0.0b13, Python 3.10.8, 2023-1.0-py310-tiled
# Detector.I0: 10 cm N2
# Detector.I1: 25 cm N2
# Detector.I2: 25 cm N2
# Element.symbol: Bi
# Element.edge: L3
# Element.reference: Bi
# Element.reference_material: BiO2
# Facility.name: NSLS-II
# Facility.energy: 3.0
# Facility.current: 399.2
# Facility.mode: top-off
# Facility.GUP: 301027
# Facility.SAF: 310583
# Facility.cycle: 2023-2
# Mono.name: Si(111)
# Mono.d_spacing: 3.1351860
# Mono.encoder_resolution: 0.0000050 deg/ct
# Mono.angle_offset: 16.0754326 deg
# Mono.scan_mode: pseudo channel cut
# Mono.scan_type: step
# Mono.direction: forward in energy
# Sample.name: BiO2
# Sample.prep: powder on tape
# Sample.x: 109.138 mm
# Sample.y: 153.150 mm
# Sample.SDD_position: 205.000 mm
# Scan.experimenters: Bruce Ravel
# Scan.edge_energy: 13418.6
# Scan.start_time: 2023-05-28T20:33:55
# Scan.end_time: 2023-05-28T20:41:37
# Scan.transient_id: 78994
# Scan.uid: c397426a-9ce3-438d-89a4-edf12d9f0932
# Scan.plot_hint: ln(It/Ir)  --  ln($6/$7)
# Column.1: energy eV
# Column.2: requested_energy eV
# Column.3: measurement_time seconds
# Column.4: xmu 
# Column.5: I0 nA
# Column.6: It nA
# Column.7: Ir nA
# ///////////
# Welcome to BMM
# -----------
# energy  requested_energy  measurement_time  xmu  I0  It  Ir
  13218.613  13218.600  0.500  0.702281  45.217113  79.487226  39.382256
  13228.655  13228.600  0.500  0.700779  45.181749  79.454445  39.425203
  13238.651  13238.600  0.500  0.699282  45.115832  79.351149  39.432921
  13248.671  13248.600  0.500  0.697740  44.992507  79.148030  39.392666
  13258.675  13258.600  0.500  0.696294  44.849536  78.923660  39.337864
  13268.701  13268.600  0.500  0.694912  44.619098  78.532732  39.197142
  13278.621  13278.600  0.500  0.693439  44.065559  77.568761  38.773082
  13288.624  13288.600  0.500  0.692050  43.873536  77.248887  38.666859
  13298.604  13298.600  0.500  0.690701  43.799096  77.138084  38.663485
  13308.630  13308.600  0.500  0.689277  43.690989  76.968524  38.633500
  13318.625  13318.600  0.500  0.688015  43.612694  76.848901  38.622147
  13328.628  13328.600  0.500  0.686785  43.423304  76.531371  38.509900
  13338.638  13338.600  0.500  0.685588  43.388165  76.486706  38.533554
  13348.578  13348.600  0.500  0.684554  43.310437  76.366486  38.512783
  13358.587  13358.600  0.500  0.683755  43.205444  76.198927  38.458980
  13368.595  13368.600  0.500  0.683097  43.093713  76.018622  38.393252
  13378.596  13378.600  0.500  0.682974  42.985754  75.844972  38.310233
  13388.604  13388.600  0.500  0.683629  42.886308  75.691965  38.207940
  13390.529  13390.600  0.500  0.683871  42.861950  75.650284  38.177659
  13392.548  13392.600  0.500  0.684307  42.842951  75.615645  38.143517
  13394.529  13394.600  0.500  0.684703  42.813982  75.563330  38.102055
  13396.519  13396.600  0.500  0.685256  42.792792  75.532697  38.065535
  13398.540  13398.600  0.500  0.686063  42.775837  75.502151  38.019449
  13400.547  13400.600  0.500  0.686965  42.755530  75.474775  37.971415
  13402.538  13402.600  0.500  0.688001  42.735330  75.441221  37.915232
  13404.530  13404.600  0.500  0.689448  42.712423  75.406120  37.842773
  13406.530  13406.600  0.500  0.691124  42.681070  75.352386  37.752511
  13408.539  13408.600  0.500  0.693553  42.680809  75.361273  37.665335
  13408.830  13408.900  0.500  0.693838  42.677900  75.355175  37.651573
  13409.120  13409.200  0.500  0.694247  42.674252  75.354154  37.635660
  13409.426  13409.500  0.500  0.694568  42.670695  75.339255  37.616136
  13409.740  13409.800  0.500  0.695131  42.665579  75.337455  37.594070
  13410.030  13410.100  0.500  0.695622  42.663445  75.333052  37.573440
  13410.337  13410.400  0.500  0.696114  42.658274  75.325452  37.551166
  13410.643  13410.700  0.500  0.696524  42.654109  75.315835  37.530976
  13410.957  13411.000  0.500  0.697107  42.653534  75.306247  37.504327
  13411.263  13411.300  0.500  0.697632  42.650547  75.303914  37.483488
  13411.553  13411.600  0.500  0.698138  42.638643  75.292638  37.458887
  13411.844  13411.900  0.500  0.698716  42.634718  75.277103  37.429523
  13412.150  13412.200  0.500  0.699535  42.633005  75.286025  37.403338
  13412.480  13412.500  0.500  0.700137  42.634447  75.280554  37.378110
  13412.755  13412.800  0.500  0.700839  42.630679  75.276553  37.349864
  13413.053  13413.100  0.500  0.701628  42.630722  75.263638  37.314007
  13413.352  13413.400  0.500  0.702317  42.622911  75.260675  37.286851
  13413.674  13413.700  0.500  0.703219  42.619222  75.252288  37.249064
  13413.964  13414.000  0.500  0.704196  42.612317  75.245766  37.209471
  13414.263  13414.300  0.500  0.705042  42.604476  75.234924  37.172649
  13414.561  13414.600  0.500  0.706062  42.600359  75.223696  37.129236
  13414.876  13414.900  0.500  0.707194  42.601969  75.227367  37.089024
  13415.174  13415.200  0.500  0.708281  42.600327  75.218855  37.044548
  13415.465  13415.500  0.500  0.709509  42.595829  75.219618  36.999465
  13415.763  13415.800  0.500  0.710601  42.587398  75.200356  36.949591
  13416.062  13416.100  0.500  0.712019  42.588794  75.205055  36.899558
  13416.368  13416.400  0.500  0.713450  42.583534  75.199152  36.843887
  13416.683  13416.700  0.500  0.715080  42.574067  75.180646  36.774848
  13416.973  13417.000  0.500  0.716684  42.583115  75.198997  36.724843
  13417.264  13417.300  0.500  0.718349  42.576850  75.182630  36.655794
  13417.563  13417.600  0.500  0.720241  42.570128  75.177251  36.583878
  13417.869  13417.900  0.500  0.722400  42.562569  75.176469  36.504606
  13418.176  13418.200  0.500  0.724638  42.563254  75.170182  36.419947
  13418.467  13418.500  0.500  0.727006  42.557055  75.154054  36.326012
  13418.765  13418.800  0.500  0.729669  42.550541  75.146782  36.225896
  13419.072  13419.100  0.500  0.732575  42.547007  75.142948  36.118944
  13419.386  13419.400  0.500  0.735806  42.538694  75.129188  35.995845
  13419.669  13419.700  0.500  0.739179  42.539015  75.129793  35.874918
  13419.960  13420.000  0.500  0.742773  42.533917  75.119200  35.741160
  13420.275  13420.300  0.500  0.746861  42.534274  75.113102  35.592481
  13420.573  13420.600  0.500  0.751325  42.529408  75.105622  35.430403
  13420.888  13420.900  0.500  0.756132  42.522000  75.103973  35.259723
  13421.179  13421.200  0.500  0.760907  42.519535  75.099127  35.089512
  13421.478  13421.500  0.500  0.765980  42.512214  75.082376  34.904153
  13421.792  13421.800  0.500  0.771350  42.508707  75.077719  34.715062
  13422.099  13422.100  0.500  0.776839  42.503248  75.068381  34.520735
  13422.390  13422.400  0.500  0.782175  42.502781  75.072622  34.338989
  13422.689  13422.700  0.500  0.787538  42.490412  75.051209  34.145548
  13422.987  13423.000  0.500  0.792713  42.491880  75.045206  33.966603
  13423.294  13423.300  0.500  0.798302  42.488192  75.036723  33.773456
  13423.609  13423.600  0.500  0.803737  42.482180  75.026949  33.586038
  13423.892  13423.900  0.500  0.808712  42.480516  75.016929  33.414913
  13424.199  13424.200  0.500  0.813816  42.472396  75.013067  33.243087
  13424.506  13424.500  0.500  0.819120  42.472753  75.009932  33.065818
  13424.820  13424.800  0.500  0.824361  42.463846  75.005237  32.890928
  13425.119  13425.100  0.500  0.829432  42.460197  75.000126  32.722348
  13425.387  13425.400  0.500  0.834419  42.452596  74.991406  32.555762
  13425.694  13425.700  0.500  0.839719  42.449258  74.977998  32.377872
  13425.993  13426.000  0.500  0.845332  42.447385  74.970991  32.193651
  13426.315  13426.300  0.500  0.851762  42.436757  74.962766  31.983799
  13426.599  13426.600  0.500  0.858001  42.431174  74.948006  31.778616
  13426.898  13426.900  0.500  0.864775  42.420973  74.933234  31.557849
  13427.189  13427.200  0.500  0.872085  42.415586  74.926477  31.325171
  13427.511  13427.500  0.500  0.880999  42.402322  74.898805  31.035731
  13427.818  13427.800  0.500  0.889870  42.386449  74.875050  30.751869
  13428.102  13428.100  0.500  0.898698  42.369613  74.838079  30.466519
  13428.401  13428.400  0.500  0.909129  42.359926  74.823032  30.144330
  13428.692  13428.700  0.500  0.919645  42.335728  74.789992  29.815822
  13428.991  13429.000  0.500  0.930898  42.331786  74.781833  29.478959
  13429.298  13429.300  0.500  0.942646  42.330998  74.784462  29.135698
  13429.582  13429.600  0.500  0.954484  42.330083  74.775923  28.789547
  13429.897  13429.900  0.500  0.967108  42.328820  74.775094  28.428072
  13430.196  13430.200  0.500  0.980085  42.338788  74.786950  28.065980
  13430.503  13430.500  0.500  0.992421  42.346904  74.801398  27.727253
  13430.810  13430.800  0.500  1.004271  42.348451  74.807373  27.402798
  13431.078  13431.100  0.500  1.015088  42.351581  74.812907  27.109997
  13431.393  13431.400  0.500  1.026920  42.355175  74.821688  26.794250
  13431.708  13431.700  0.500  1.037829  42.354666  74.822930  26.503989
  13431.991  13432.000  0.500  1.047712  42.346451  74.808996  26.238457
  13432.275  13432.300  0.500  1.057126  42.344644  74.798373  25.988909
  13432.574  13432.600  0.500  1.066363  42.331832  74.789616  25.746937
  13432.897  13432.900  0.500  1.075498  42.333623  74.786207  25.511660
  13433.196  13433.200  0.500  1.083965  42.328190  74.779286  25.294208
  13433.488  13433.500  0.500  1.091507  42.316762  74.763849  25.098987
  13433.779  13433.800  0.500  1.098729  42.320174  74.771019  24.920764
  13434.087  13434.100  0.500  1.106212  42.315128  74.757332  24.730441
  13434.394  13434.400  0.500  1.113282  42.311225  74.753506  24.554974
  13434.678  13434.700  0.500  1.119914  42.309757  74.749573  24.391384
  13434.977  13435.000  0.500  1.126322  42.302260  74.736972  24.231475
  13435.284  13435.300  0.500  1.132614  42.299514  74.732881  24.078173
  13435.599  13435.600  0.500  1.139159  42.292291  74.724684  23.918478
  13435.891  13435.900  0.500  1.144892  42.289030  74.709279  23.776849
  13436.190  13436.200  0.500  1.150786  42.281041  74.702376  23.634941
  13436.490  13436.500  0.500  1.156254  42.275943  74.693425  23.503244
  13436.805  13436.800  0.500  1.161871  42.271521  74.690199  23.370572
  13437.097  13437.100  0.500  1.167600  42.270813  74.687415  23.236213
  13437.388  13437.400  0.500  1.172445  42.270258  74.679091  23.121328
  13437.688  13437.700  0.500  1.177286  42.264809  74.669016  23.006559
  13437.995  13438.000  0.500  1.182444  42.255567  74.658409  22.884943
  13438.311  13438.300  0.500  1.187220  42.255360  74.659995  22.776394
  13438.610  13438.600  0.500  1.191504  42.251133  74.653032  22.676899
  13438.910  13438.900  0.500  1.195574  42.243313  74.645988  22.582674
  13439.202  13439.200  0.500  1.199400  42.237663  74.633603  22.492696
  13439.517  13439.500  0.500  1.203447  42.234559  74.626603  22.399759
  13439.801  13439.800  0.500  1.206679  42.232762  74.622496  22.326257
  13440.093  13440.100  0.500  1.209872  42.231482  74.616015  22.253151
  13440.408  13440.400  0.500  1.213178  42.223535  74.608951  22.177599
  13440.716  13440.700  0.500  1.216105  42.219863  74.603082  22.111040
  13441.007  13441.000  0.500  1.218731  42.213097  74.596435  22.051091
  13441.299  13441.300  0.500  1.221244  42.204956  74.577451  21.990145
  13441.607  13441.600  0.500  1.224009  42.202446  74.578306  21.929664
  13441.914  13441.900  0.500  1.226494  42.202349  74.577068  21.874883
  13442.206  13442.200  0.500  1.228569  42.199785  74.568897  21.827142
  13442.490  13442.500  0.500  1.230761  42.191504  74.560189  21.776822
  13442.806  13442.800  0.500  1.233143  42.196242  74.559932  21.724930
  13443.113  13443.100  0.500  1.235270  42.186295  74.552099  21.676490
  13443.390  13443.400  0.500  1.237092  42.185531  74.546474  21.635393
  13443.595  13443.600  0.500  1.238561  42.180966  74.532164  21.599483
  13444.589  13444.590  0.500  1.244808  42.168949  74.522782  21.462277
  13445.575  13445.590  0.500  1.249487  42.153299  74.502750  21.356351
  13446.609  13446.610  0.500  1.251783  42.145126  74.478314  21.300387
  13447.659  13447.660  0.500  1.251074  42.128135  74.450070  21.307414
  13448.733  13448.720  0.500  1.247459  42.183060  74.547310  21.412500
  13449.815  13449.800  0.500  1.241439  42.226631  74.624637  21.564145
  13450.920  13450.900  0.500  1.234225  42.213451  74.608497  21.715575
  13452.034  13452.020  0.500  1.226133  42.223236  74.627176  21.897481
  13453.164  13453.160  0.500  1.218278  42.217454  74.614612  22.066445
  13454.317  13454.310  0.500  1.210830  42.208252  74.597204  22.226217
  13455.487  13455.490  0.500  1.204341  42.202911  74.593867  22.369914
  13456.689  13456.680  0.500  1.199537  42.188610  74.570363  22.470571
  13457.898  13457.900  0.500  1.196001  42.170582  74.548709  22.543603
  13459.140  13459.130  0.500  1.193975  42.161661  74.531666  22.584164
  13460.381  13460.380  0.500  1.192864  42.146277  74.495002  22.598141
  13461.663  13461.650  0.500  1.192839  42.134023  74.487942  22.596569
  13462.952  13462.940  0.500  1.192790  42.118216  74.457755  22.588518
  13464.290  13464.250  0.500  1.193011  42.104223  74.431891  22.575682
  13465.619  13465.580  0.500  1.193138  42.090366  74.409425  22.565997
  13466.949  13466.930  0.500  1.193218  42.067942  74.369050  22.551961
  13468.303  13468.300  0.500  1.193431  42.056752  74.358627  22.543991
  13469.674  13469.680  0.500  1.193355  42.030029  74.311676  22.531465
  13471.092  13471.090  0.500  1.193233  41.978025  74.225093  22.507969
  13472.534  13472.510  0.500  1.192968  41.997660  74.270293  22.527636
  13473.960  13473.950  0.500  1.192610  41.994120  74.255378  22.531187
  13475.419  13475.410  0.500  1.192226  41.984232  74.236761  22.534188
  13476.933  13476.890  0.500  1.191962  41.944765  74.168049  22.519278
  13478.400  13478.390  0.500  1.192070  41.899690  74.092901  22.494027
  13479.907  13479.910  0.500  1.192256  41.898516  74.091864  22.489523
  13481.462  13481.450  0.500  1.193182  41.646992  73.651120  22.335065
  13483.009  13483.010  0.500  1.194836  41.712853  73.772838  22.335002
  13484.597  13484.580  0.500  1.197124  41.858150  74.025620  22.360309
  13486.193  13486.180  0.500  1.200270  41.870889  74.057554  22.299693
  13487.821  13487.790  0.500  1.203490  41.879364  74.065571  22.230395
  13489.457  13489.430  0.500  1.206823  41.855421  74.037092  22.147903
  13491.102  13491.080  0.500  1.209878  41.830546  73.987013  22.065422
  13492.762  13492.750  0.500  1.212142  41.761658  73.878461  21.983217
  13494.448  13494.440  0.500  1.213647  41.789224  73.928284  21.964961
  13496.157  13496.150  0.500  1.214526  41.781724  73.915649  21.941902
  13497.891  13497.880  0.500  1.214719  41.757734  73.876950  21.926188
  13499.649  13499.630  0.500  1.214545  41.715256  73.803626  21.908233
  13501.432  13501.390  0.500  1.213815  41.719278  73.815823  21.927854
  13503.191  13503.180  0.500  1.212468  41.703908  73.783926  21.947923
  13504.998  13504.980  0.500  1.210861  41.678065  73.745327  21.971727
  13506.806  13506.810  0.500  1.209185  41.663813  73.720051  22.001033
  13508.662  13508.650  0.500  1.207444  41.633305  73.671042  22.024717
  13510.534  13510.510  0.500  1.205773  41.607779  73.631668  22.049762
  13512.399  13512.390  0.500  1.204318  41.592546  73.603820  22.073515
  13514.305  13514.290  0.500  1.203143  41.566784  73.566573  22.088286
  13516.235  13516.210  0.500  1.201647  41.537964  73.517025  22.106468
  13518.149  13518.150  0.500  1.200201  41.520463  73.487142  22.129452
  13520.096  13520.110  0.500  1.199010  41.497640  73.446459  22.143565
  13522.092  13522.080  0.500  1.197653  41.468492  73.406530  22.161576
  13524.112  13524.080  0.500  1.196242  41.437716  73.353071  22.176703
  13526.116  13526.090  0.500  1.195210  41.414262  73.312694  22.187375
  13528.145  13528.120  0.500  1.194033  41.375459  73.248258  22.193985
  13530.183  13530.180  0.500  1.192912  41.360337  73.226851  22.212381
  13532.246  13532.250  0.500  1.191960  41.346799  73.205437  22.227053
  13534.357  13534.340  0.500  1.190882  41.296357  73.123937  22.226242
  13536.493  13536.450  0.500  1.190215  41.199629  72.959335  22.191014
  13538.605  13538.580  0.500  1.189600  40.451262  71.630164  21.800139
  13540.750  13540.720  0.500  1.189105  40.988114  72.579003  22.099847
  13542.904  13542.890  0.500  1.188912  41.276369  73.091143  22.260091
  13545.082  13545.080  0.500  1.188876  41.258461  73.064584  22.252801
  13547.278  13547.280  0.500  1.189006  41.229728  73.023575  22.237412
  13549.530  13549.500  0.500  1.189306  41.199994  72.966073  22.213242
  13551.774  13551.750  0.500  1.189699  41.161059  72.901600  22.184892
  13554.020  13554.010  0.500  1.189961  41.112379  72.819886  22.154225
  13556.298  13556.290  0.500  1.190273  40.848119  72.359600  22.007327
  13558.610  13558.590  0.500  1.190872  40.657188  72.027122  21.893088
  13560.938  13560.910  0.500  1.190971  41.087308  72.777382  22.118939
  13563.283  13563.250  0.500  1.191335  41.062694  72.746661  22.101560
  13565.621  13565.600  0.500  1.191259  40.928581  72.513132  22.032280
  13567.991  13567.980  0.500  1.191185  40.898061  72.461092  22.018098
  13570.379  13570.370  0.500  1.190882  40.976517  72.601452  22.067432
  13572.800  13572.790  0.500  1.190537  40.902893  72.482984  22.039028
  13575.229  13575.220  0.500  1.189983  40.297614  71.416650  21.726825
  13577.692  13577.670  0.500  1.189486  40.835493  72.370981  22.028109
  13580.180  13580.150  0.500  1.189291  40.898602  72.487082  22.067757
  13582.652  13582.640  0.500  1.188778  40.869459  72.433968  22.062907
  13585.174  13585.150  0.500  1.188440  40.831114  72.369527  22.050723
  13587.697  13587.670  0.500  1.188040  40.798267  72.315351  22.043027
  13590.253  13590.220  0.500  1.187663  40.740031  72.226555  22.024258
  13592.802  13592.790  0.500  1.187212  40.435644  71.688443  21.870046
  13595.368  13595.370  0.500  1.186704  40.002885  70.914295  21.644867
  13598.024  13597.980  0.500  1.186072  40.684474  72.127724  22.029140
  13600.624  13600.600  0.500  1.185192  40.691650  72.150267  22.055440
  13603.258  13603.250  0.500  1.184190  40.652136  72.079803  22.055981
  13605.917  13605.910  0.500  1.183122  40.607883  72.015701  22.059906
  13608.585  13608.590  0.500  1.181768  40.590578  71.981259  22.079246
  13611.335  13611.290  0.500  1.180458  40.562993  71.937582  22.094778
  13614.021  13614.010  0.500  1.179395  40.515781  71.851730  22.091871
  13616.765  13616.750  0.500  1.178174  40.507556  71.850971  22.118638
  13619.502  13619.500  0.500  1.177100  40.479992  71.798639  22.126263
  13622.322  13622.280  0.500  1.176213  40.434025  71.723053  22.122588
  13625.094  13625.070  0.500  1.175325  40.427904  71.708645  22.137796
  13627.899  13627.890  0.500  1.174824  40.397362  71.669064  22.136656
  13630.722  13630.720  0.500  1.174481  40.336511  71.569698  22.113561
  13633.594  13633.570  0.500  1.174406  40.338117  71.571041  22.115627
  13636.485  13636.450  0.500  1.174484  40.304657  71.513592  22.096159
  13639.376  13639.340  0.500  1.174742  40.272630  71.464114  22.075180
  13642.252  13642.250  0.500  1.175046  40.248130  71.418743  22.054439
  13645.195  13645.170  0.500  1.175339  40.206249  71.351097  22.027101
  13648.147  13648.120  0.500  1.175277  40.171657  71.297614  22.011965
  13651.109  13651.090  0.500  1.175326  40.090269  71.152284  21.966003
  13654.071  13654.070  0.500  1.175259  39.970378  70.945717  21.903709
  13657.109  13657.080  0.500  1.174782  40.106716  71.188591  21.989173
  13660.131  13660.100  0.500  1.174260  40.065776  71.120524  21.979627
  13663.163  13663.150  0.500  1.173565  40.037822  71.076810  21.981388
  13666.205  13666.210  0.500  1.172811  40.000417  71.016435  21.979280
  13669.305  13669.290  0.500  1.172260  39.963683  70.954078  21.972079
  13672.414  13672.390  0.500  1.171498  39.936786  70.917308  21.977451
  13675.534  13675.510  0.500  1.170766  39.905873  70.865182  21.977375
  13678.662  13678.650  0.500  1.170207  39.866653  70.804248  21.970741
  13681.833  13681.800  0.500  1.169660  39.834249  70.739440  21.962654
  13685.006  13684.980  0.500  1.169400  39.801604  70.684401  21.951264
  13688.188  13688.170  0.500  1.168913  39.764910  70.625481  21.943647
  13691.405  13691.390  0.500  1.168610  39.731926  70.576465  21.935068
  13694.647  13694.620  0.500  1.168230  39.697956  70.516051  21.924620
  13697.883  13697.870  0.500  1.168002  39.667051  70.471869  21.915892
  13701.137  13701.150  0.500  1.167539  39.626427  70.395045  21.902138
  13704.475  13704.440  0.500  1.167009  39.585427  70.331617  21.893985
  13707.773  13707.750  0.500  1.166212  39.564706  70.301725  21.902140
  13711.081  13711.070  0.500  1.165490  39.545969  70.270012  21.908063
  13714.439  13714.420  0.500  1.164507  39.506787  70.205958  21.909630
  13717.792  13717.790  0.500  1.163315  39.473898  70.152120  21.918941
  13721.187  13721.170  0.500  1.162316  39.438817  70.094511  21.922826
  13724.592  13724.580  0.500  1.161258  39.405054  70.037387  21.928151
  13728.031  13728.000  0.500  1.160295  39.364785  69.983704  21.932456
  13731.481  13731.450  0.500  1.159457  39.324629  69.913377  21.928782
  13734.907  13734.910  0.500  1.158706  39.289851  69.854223  21.926678
  13738.410  13738.390  0.500  1.157907  39.258702  69.798978  21.926867
  13741.906  13741.890  0.500  1.157424  39.224816  69.749488  21.921894
  13745.412  13745.410  0.500  1.156836  39.183212  69.681670  21.913464
  13748.953  13748.950  0.500  1.156483  39.150106  69.628584  21.904508
  13752.537  13752.500  0.500  1.155749  39.105641  69.550047  21.895861
  13756.098  13756.080  0.500  1.155291  39.074808  69.495686  21.888759
  13759.686  13759.680  0.500  1.154882  39.035370  69.437006  21.879234
  13763.317  13763.290  0.500  1.154377  39.005887  69.391110  21.875815
  13766.934  13766.920  0.500  1.153883  38.969478  69.328682  21.866931
  13770.585  13770.580  0.500  1.153387  38.919018  69.246384  21.851814
  13774.272  13774.250  0.500  1.152769  38.887679  69.200856  21.850936
  13777.969  13777.940  0.500  1.152100  38.851408  69.129758  21.843095
  13781.651  13781.650  0.500  1.151305  38.808592  69.069060  21.841291
  13785.419  13785.380  0.500  1.150352  38.764632  68.986205  21.835872
  13789.155  13789.120  0.500  1.149588  38.730416  68.935910  21.836633
  13792.910  13792.890  0.500  1.148751  38.682800  68.852814  21.828589
  13796.692  13796.680  0.500  1.148128  38.639486  68.790092  21.822282
  13800.525  13800.480  0.500  1.147201  38.604849  68.719600  21.820147
  13804.328  13804.310  0.500  1.146469  38.568201  68.663834  21.818401
  13808.191  13808.150  0.500  1.145745  38.530330  68.603883  21.815140
  13812.048  13812.010  0.500  1.145018  38.487725  68.538288  21.810137
  13815.908  13815.890  0.500  1.144244  38.416935  68.414922  21.787731
  13819.811  13819.790  0.500  1.143308  38.403211  68.386456  21.799068
  13823.749  13823.710  0.500  1.142668  38.364462  68.331504  21.795497
  13827.674  13827.650  0.500  1.141905  38.316332  68.243857  21.784156
  13831.634  13831.610  0.500  1.141195  38.279887  68.191378  21.782858
  13835.604  13835.580  0.500  1.140387  38.222967  68.090874  21.768334
  13839.627  13839.580  0.500  1.139579  38.196440  68.051451  21.773321
  13843.628  13843.590  0.500  1.138887  38.144493  67.962137  21.759790
  13847.672  13847.630  0.500  1.137760  38.095196  67.881828  21.758576
  13851.703  13851.680  0.500  1.136971  38.047295  67.802062  21.750173
  13855.777  13855.750  0.500  1.135973  37.974031  67.674545  21.730944
  13859.871  13859.840  0.500  1.134912  37.958700  67.648969  21.745785
  13863.967  13863.950  0.500  1.134127  37.912993  67.579469  21.740499
  13868.108  13868.080  0.500  1.133119  37.860715  67.488450  21.733112
  13872.276  13872.230  0.500  1.132311  37.776841  67.345770  21.704703
  13876.421  13876.390  0.500  1.131307  37.730467  67.263039  21.699820
  13880.595  13880.580  0.500  1.130498  37.589882  67.014643  21.637188
  13884.830  13884.780  0.500  1.129754  37.621659  67.084181  21.675758
  13889.025  13889.010  0.500  1.128912  37.513982  66.894690  21.632740
  13893.274  13893.250  0.500  1.128276  37.406013  66.712631  21.587574
  13897.542  13897.510  0.500  1.127549  37.334739  66.590977  21.563886
  13901.821  13901.790  0.500  1.126861  37.323948  66.574205  21.573299
  13906.128  13906.090  0.500  1.126041  37.322686  66.574342  21.591035
  13910.471  13910.410  0.500  1.125387  37.250226  66.456232  21.566831
  13914.759  13914.750  0.500  1.124683  37.232491  66.429934  21.573483
  13919.141  13919.110  0.500  1.123689  37.132051  66.248380  21.535916
  13923.519  13923.490  0.500  1.122869  37.135953  66.263948  21.558637
  13927.916  13927.880  0.500  1.122006  37.102447  66.214906  21.561297
  13932.349  13932.300  0.500  1.121071  37.092459  66.201379  21.577055
  13936.777  13936.730  0.500  1.120223  37.057681  66.141941  21.575963
  13941.200  13941.180  0.500  1.119351  37.002390  66.048922  21.564413
  13945.685  13945.650  0.500  1.118361  36.949440  65.961942  21.557349
  13950.172  13950.140  0.500  1.117546  36.921769  65.913808  21.559187
  13954.688  13954.650  0.500  1.116612  36.860961  65.820771  21.548876
  13959.233  13959.180  0.500  1.115687  36.798978  65.709142  21.532237
  13963.798  13963.730  0.500  1.114908  36.723729  65.586019  21.508628
  13968.306  13968.300  0.500  1.114092  36.601458  65.368581  21.454833
  13972.936  13972.880  0.500  1.112953  34.524707  61.664285  20.262101
  13977.552  13977.490  0.500  1.112251  36.686509  65.529812  21.547372
  13982.146  13982.110  0.500  1.111513  36.676802  65.521994  21.560714
  13986.811  13986.760  0.500  1.110553  36.636907  65.455360  21.559480
  13991.488  13991.420  0.500  1.109676  36.579963  65.362663  21.547829
  13996.134  13996.100  0.500  1.108802  36.532819  65.283562  21.540580
  14000.860  14000.800  0.500  1.107927  36.481362  65.197099  21.530872
  14005.589  14005.520  0.500  1.106871  36.430406  65.111320  21.525256
  14010.305  14010.260  0.500  1.106038  36.386276  65.042156  21.520323
  14015.066  14015.010  0.500  1.104955  36.338504  64.957326  21.515542
  14019.900  14019.790  0.500  1.103961  36.278942  64.861755  21.505255
  14024.573  14024.590  0.500  1.102859  36.232258  64.777932  21.501144
  14029.379  14029.400  0.500  1.101907  36.180824  64.692057  21.493093
  14034.222  14034.230  0.500  1.100968  36.135750  64.618116  21.488685
  14039.078  14039.090  0.500  1.100110  36.086570  64.534398  21.479271
  14043.945  14043.960  0.500  1.099066  36.042960  64.458721  21.476491
  14048.851  14048.850  0.500  1.098261  35.984993  64.362010  21.461539
  14053.777  14053.760  0.500  1.097375  35.927622  64.260325  21.446626
  14058.689  14058.690  0.500  1.096511  35.880549  64.184136  21.439716
  14063.648  14063.630  0.500  1.095516  35.813891  64.075545  21.424742
  14068.645  14068.600  0.500  1.094567  35.678911  63.838374  21.365714
  14073.603  14073.590  0.500  1.093728  33.169074  59.355104  19.881898
  14078.607  14078.590  0.500  1.092743  35.736723  63.947691  21.441381
  14083.658  14083.620  0.500  1.091808  35.563493  63.650860  21.361802
  14088.695  14088.660  0.500  1.090768  35.636463  63.779965  21.427407
  14093.763  14093.720  0.500  1.089881  35.587029  63.708467  21.422388
  14098.816  14098.800  0.500  1.088723  35.509366  63.571636  21.401143
  14103.925  14103.900  0.500  1.087800  35.435848  63.444482  21.378070
  14109.047  14109.020  0.500  1.086706  35.271356  63.158058  21.304839
  14114.199  14114.160  0.500  1.085698  35.280291  63.176867  21.332681
  14119.363  14119.320  0.500  1.084304  33.427104  59.862302  20.241659
  14124.505  14124.500  0.500  1.083529  35.358349  63.326374  21.429585
  14129.738  14129.690  0.500  1.082566  35.271098  63.180031  21.400681
  14134.957  14134.910  0.500  1.081600  35.220418  63.091585  21.391359
  14140.154  14140.140  0.500  1.080647  35.171228  63.008375  21.383518
  14145.416  14145.390  0.500  1.079618  35.120196  62.929292  21.378668
  14150.699  14150.660  0.500  1.078687  35.069312  62.841930  21.368876
  14155.978  14155.950  0.500  1.077767  34.957085  62.651713  21.323806
  14161.287  14161.260  0.500  1.076647  34.886304  62.525283  21.304626
  14166.626  14166.590  0.500  1.075576  32.742909  58.689180  20.018946
  14171.961  14171.940  0.500  1.074597  34.863574  62.497513  21.338851
  14177.326  14177.310  0.500  1.073633  34.846716  62.469219  21.349763
  14182.722  14182.690  0.500  1.072605  34.790206  62.368966  21.337422
  14188.121  14188.100  0.500  1.071547  34.738033  62.284710  21.331167
  14193.560  14193.520  0.500  1.070385  34.678545  62.185290  21.321880
  14199.004  14198.970  0.500  1.069475  34.636394  62.116604  21.317712
  14204.451  14204.430  0.500  1.068329  34.575285  62.016647  21.307818
  14209.938  14209.910  0.500  1.067229  34.523256  61.932676  21.302374
  14215.447  14215.410  0.500  1.066208  34.469803  61.842516  21.293105
  14220.934  14220.930  0.500  1.065172  34.407949  61.736083  21.278478
  14226.478  14226.470  0.500  1.064120  34.358363  61.654038  21.272586
  14232.035  14232.020  0.500  1.062905  34.303554  61.558233  21.265339
  14237.597  14237.600  0.500  1.062015  34.253080  61.472634  21.254681
  14243.225  14243.200  0.500  1.060926  34.189220  61.365713  21.240828
  14248.840  14248.810  0.500  1.059854  34.134333  61.270012  21.230452
  14254.450  14254.450  0.500  1.058929  34.062819  61.153562  21.209707
  14260.101  14260.100  0.500  1.057810  33.975315  60.996623  21.178959
  14265.782  14265.770  0.500  1.056720  33.817809  60.722256  21.106691
  14271.469  14271.460  0.500  1.056004  32.203682  57.827661  20.114949
