# XDI/1.0 BlueSky/1.10.0 BMM/2023-1.0-py310-tiled
# Beamline.name: BMM (06BM) -- Beamline for Materials Measurement (NIST)
# Beamline.xray_source: NSLS-II three-pole wiggler
# Beamline.collimation: paraboloid mirror, 5 nm Rh on 30 nm Pt
# Beamline.focusing: not in use
# Beamline.harmonic_rejection: flat mirror, Pt stripe, pitch = 7.0 mrad relative to beam
# Beamline.software: Bluesky 1.10.0, Ophyd 1.7.0, DataBroker 2.0.0b13, Python 3.10.8, 2023-1.0-py310-tiled
# Detector.I0: 10 cm N2
# Detector.I1: 25 cm N2
# Detector.I2: 25 cm N2
# Element.symbol: Tm
# Element.edge: L1
# Element.reference: Tm
# Element.reference_material: Tm2O3
# Facility.name: NSLS-II
# Facility.energy: 3.0
# Facility.current: 399.4
# Facility.mode: top-off
# Facility.GUP: 123456
# Facility.SAF: 301027
# Facility.cycle: 2023-2
# Mono.name: Si(111)
# Mono.d_spacing: 3.1351860
# Mono.encoder_resolution: 0.0000050 deg/ct
# Mono.angle_offset: 16.0754326 deg
# Mono.scan_mode: pseudo channel cut
# Mono.scan_type: step
# Mono.direction: forward in energy
# Sample.name: Tm2TiO5
# Sample.prep: Powder in PEG pellet
# Sample.x: 149.848 mm
# Sample.y: 114.690 mm
# Sample.SDD_position: 205.000 mm
# Scan.experimenters: Bruce Ravel
# Scan.edge_energy: 10115.7
# Scan.start_time: 2023-05-08T22:54:04
# Scan.end_time: 2023-05-08T22:59:43
# Scan.transient_id: 75697
# Scan.uid: 3307debb-dae3-425b-bae1-f86f10d0a1ce
# Scan.plot_hint: ln(I0/It)  --  ln($5/$6)
# Column.1: energy eV
# Column.2: requested_energy eV
# Column.3: measurement_time seconds
# Column.4: xmu 
# Column.5: I0 nA
# Column.6: It nA
# Column.7: Ir nA
# ///////////
# sample courtesy Martin Stennett, University of Sheffield
# -----------
# energy  requested_energy  measurement_time  xmu  I0  It  Ir
  9915.746  9915.700  0.500  0.170888  97.259657  81.981679  27.977012
  9925.792  9925.700  0.500  0.168940  97.055080  81.968792  28.047758
  9935.739  9935.700  0.500  0.167086  97.269820  82.302618  28.216418
  9945.757  9945.700  0.500  0.165286  97.053668  82.267651  28.271444
  9955.732  9955.700  0.500  0.163463  96.676032  82.097101  28.294778
  9965.736  9965.700  0.500  0.161549  96.447818  82.060162  28.356208
  9975.734  9975.700  0.500  0.159712  96.511920  82.265761  28.486233
  9985.741  9985.700  0.500  0.157806  95.893042  81.894109  28.423223
  9995.728  9995.700  0.500  0.155985  95.962436  82.102810  28.571464
  10005.732  10005.700  0.500  0.154341  95.974649  82.248344  28.676091
  10015.735  10015.700  0.500  0.151647  94.567273  81.260826  28.400531
  10025.736  10025.700  0.500  0.149550  95.539140  82.268302  28.823970
  10035.727  10035.700  0.500  0.147731  92.693666  79.963370  28.085773
  10045.730  10045.700  0.500  0.145941  95.212058  82.283081  28.985276
  10055.731  10055.700  0.500  0.144113  95.013896  82.262095  29.051995
  10065.718  10065.700  0.500  0.142365  94.822001  82.239595  29.123185
  10075.729  10075.700  0.500  0.140559  94.622486  82.214890  29.173442
  10085.721  10085.700  0.500  0.138778  94.395419  82.163770  29.195009
  10087.684  10087.700  0.500  0.138488  93.687644  81.571383  28.988036
  10089.684  10089.700  0.500  0.138199  92.388030  80.463072  28.604919
  10091.681  10091.700  0.500  0.137805  94.151837  82.031559  29.168388
  10093.682  10093.700  0.500  0.137577  94.197386  82.089958  29.195736
  10095.675  10095.700  0.500  0.137250  94.173371  82.095811  29.201642
  10097.683  10097.700  0.500  0.136870  94.135643  82.094157  29.208033
  10099.682  10099.700  0.500  0.136545  94.106138  82.095132  29.215159
  10101.678  10101.700  0.500  0.136158  94.067522  82.093152  29.216552
  10103.679  10103.700  0.500  0.135892  94.033024  82.084879  29.217320
  10105.686  10105.700  0.500  0.135484  93.997259  82.087198  29.215345
  10106.167  10106.200  0.500  0.135373  93.988823  82.088881  29.217042
  10106.676  10106.700  0.500  0.135344  93.972573  82.077055  29.213157
  10107.175  10107.200  0.500  0.135237  93.958061  82.073177  29.210178
  10107.666  10107.700  0.500  0.135165  93.948444  82.070731  29.207439
  10108.175  10108.200  0.500  0.135133  93.938957  82.065057  29.203894
  10108.666  10108.700  0.500  0.135084  93.925932  82.057718  29.199239
  10109.174  10109.200  0.500  0.135067  93.921019  82.054797  29.195099
  10109.670  10109.700  0.500  0.134849  93.899952  82.054240  29.190199
  10110.170  10110.200  0.500  0.134929  93.899766  82.047527  29.181928
  10110.665  10110.700  0.500  0.134736  93.883405  82.049122  29.179529
  10111.170  10111.200  0.500  0.134706  93.864246  82.034810  29.166536
  10111.670  10111.700  0.500  0.134672  93.851100  82.026119  29.158761
  10112.165  10112.200  0.500  0.134650  93.843264  82.021053  29.148728
  10112.679  10112.700  0.500  0.134603  93.834614  82.017340  29.139571
  10113.179  10113.200  0.500  0.134513  93.820121  82.012065  29.123932
  10113.679  10113.700  0.500  0.134431  93.805326  82.005890  29.105931
  10114.184  10114.200  0.500  0.134521  93.799524  81.993427  29.083707
  10114.689  10114.700  0.500  0.134410  93.782902  81.988004  29.057639
  10115.193  10115.200  0.500  0.134489  93.769274  81.969569  29.022618
  10115.689  10115.700  0.500  0.134470  93.754735  81.958419  28.982876
  10116.181  10116.200  0.500  0.134590  93.751512  81.945739  28.935034
  10116.686  10116.700  0.500  0.134575  93.735232  81.932779  28.882303
  10117.187  10117.200  0.500  0.134576  93.723134  81.922146  28.824044
  10117.683  10117.700  0.500  0.134673  93.711167  81.903694  28.764925
  10118.179  10118.200  0.500  0.134751  93.693351  81.881781  28.702817
  10118.680  10118.700  0.500  0.134849  93.674905  81.857635  28.640439
  10119.181  10119.200  0.500  0.134961  93.671834  81.845726  28.583597
  10119.686  10119.700  0.500  0.134944  93.653125  81.830787  28.525412
  10120.196  10120.200  0.500  0.135046  93.648245  81.818222  28.470488
  10120.697  10120.700  0.500  0.135110  93.628659  81.795871  28.414093
  10121.193  10121.200  0.500  0.135270  93.624850  81.779467  28.356229
  10121.690  10121.700  0.500  0.135253  93.612423  81.769977  28.299271
  10122.196  10122.200  0.500  0.135277  93.598458  81.755840  28.242523
  10122.706  10122.700  0.500  0.135358  93.585298  81.737677  28.182958
  10123.193  10123.200  0.500  0.135544  93.571107  81.710063  28.119477
  10123.690  10123.700  0.500  0.135712  93.554665  81.681987  28.055055
  10124.187  10124.200  0.500  0.135650  93.545174  81.678830  27.990260
  10124.684  10124.700  0.500  0.135780  93.531467  81.656204  27.922038
  10125.194  10125.200  0.500  0.136020  93.513346  81.620795  27.842438
  10125.691  10125.700  0.500  0.135882  93.496077  81.616966  27.773041
  10126.193  10126.200  0.500  0.135994  93.487255  81.600174  27.692093
  10126.690  10126.700  0.500  0.136164  93.487253  81.586241  27.608033
  10127.196  10127.200  0.500  0.136417  93.478859  81.558288  27.514505
  10127.693  10127.700  0.500  0.136511  93.471718  81.544458  27.414653
  10128.199  10128.200  0.500  0.136704  93.451053  81.510681  27.307573
  10128.710  10128.700  0.500  0.136803  93.441654  81.494414  27.204231
  10129.199  10129.200  0.500  0.137071  93.432857  81.464869  27.104720
  10129.696  10129.700  0.500  0.137232  93.415528  81.436662  27.014455
  10130.193  10130.200  0.500  0.137417  93.409959  81.416740  26.947007
  10130.687  10130.700  0.500  0.137456  93.394406  81.400026  26.891650
  10131.197  10131.200  0.500  0.137523  93.379786  81.381817  26.858133
  10131.700  10131.700  0.500  0.137538  93.375158  81.376562  26.842840
  10132.197  10132.200  0.500  0.137391  93.362888  81.377832  26.847681
  10132.695  10132.700  0.500  0.137251  93.347588  81.375886  26.860544
  10133.193  10133.200  0.500  0.137198  93.344517  81.377511  26.879139
  10133.704  10133.700  0.500  0.137058  93.327049  81.373718  26.904678
  10134.202  10134.200  0.500  0.136851  93.296132  81.363569  26.924610
  10134.713  10134.700  0.500  0.136646  93.252594  81.342235  26.936689
  10135.207  10135.200  0.500  0.136569  93.232688  81.331188  26.944729
  10135.696  10135.700  0.500  0.136587  93.238073  81.334445  26.956054
  10136.203  10136.200  0.500  0.136318  93.242533  81.360151  26.962230
  10136.692  10136.700  0.500  0.136298  93.248167  81.366701  26.964979
  10137.199  10137.200  0.500  0.136109  93.237446  81.372740  26.959809
  10137.697  10137.700  0.500  0.135892  93.231955  81.385585  26.953864
  10138.195  10138.200  0.500  0.135789  93.214032  81.378370  26.947143
  10138.694  10138.700  0.500  0.135670  93.202050  81.377535  26.940522
  10139.188  10139.200  0.500  0.135521  93.189584  81.378811  26.935571
  10139.695  10139.700  0.500  0.135410  93.182863  81.381976  26.938660
  10140.194  10140.200  0.500  0.135254  93.170081  81.383541  26.939716
  10140.714  10140.700  0.500  0.135187  93.160167  81.380302  26.941357
  10141.707  10141.690  0.500  0.134938  93.134671  81.378305  26.960651
  10142.700  10142.690  0.500  0.134705  93.114312  81.379499  26.993059
  10143.711  10143.710  0.500  0.134402  93.089750  81.382620  27.039854
  10144.762  10144.760  0.500  0.134254  93.069213  81.376754  27.096968
  10145.836  10145.820  0.500  0.134052  93.047614  81.374249  27.164447
  10146.919  10146.900  0.500  0.133696  93.022813  81.381575  27.236787
  10148.020  10148.000  0.500  0.133448  93.000695  81.382374  27.308475
  10149.135  10149.120  0.500  0.133206  92.985497  81.388823  27.378948
  10150.263  10150.260  0.500  0.132814  92.956760  81.395546  27.449061
  10151.414  10151.410  0.500  0.132557  92.927741  81.391065  27.511489
  10152.600  10152.590  0.500  0.132175  92.910910  81.407384  27.575551
  10153.801  10153.780  0.500  0.131869  92.878262  81.403708  27.619991
  10155.019  10155.000  0.500  0.131623  92.863818  81.411093  27.659018
  10156.247  10156.230  0.500  0.131242  92.834521  81.416380  27.684510
  10157.493  10157.480  0.500  0.131139  92.807449  81.401026  27.695324
  10158.762  10158.750  0.500  0.130881  92.778469  81.396646  27.701420
  10160.053  10160.040  0.500  0.130628  92.754636  81.396299  27.708798
  10161.363  10161.350  0.500  0.130544  92.722786  81.375191  27.698030
  10162.690  10162.680  0.500  0.130242  92.704497  81.383701  27.697056
  10164.032  10164.030  0.500  0.130037  92.672876  81.372612  27.685628
  10165.409  10165.400  0.500  0.129908  92.623265  81.339573  27.666388
  10166.796  10166.780  0.500  0.129838  92.570537  81.298947  27.644019
  10168.197  10168.190  0.500  0.129627  92.584998  81.328754  27.646225
  10169.616  10169.610  0.500  0.129441  92.561091  81.322904  27.631815
  10171.067  10171.050  0.500  0.129177  92.537159  81.323335  27.619859
  10172.532  10172.510  0.500  0.129079  92.512553  81.309695  27.595966
  10174.010  10173.990  0.500  0.128885  92.478345  81.295387  27.569468
  10175.503  10175.490  0.500  0.128752  92.442639  81.274867  27.539755
  10177.014  10177.010  0.500  0.128534  92.407640  81.261755  27.514045
  10178.565  10178.550  0.500  0.128338  92.373704  81.247860  27.485017
  10180.122  10180.110  0.500  0.128086  92.336931  81.235937  27.460277
  10181.684  10181.680  0.500  0.127825  92.306801  81.230676  27.434060
  10183.286  10183.280  0.500  0.127460  92.272493  81.230139  27.405691
  10184.912  10184.890  0.500  0.127196  92.246433  81.228618  27.386615
  10186.542  10186.530  0.500  0.126790  92.210724  81.230131  27.377294
  10188.178  10188.180  0.500  0.126610  92.177955  81.215873  27.375255
  10189.854  10189.850  0.500  0.126412  92.137533  81.196371  27.377865
  10191.558  10191.540  0.500  0.126081  92.083636  81.175722  27.392284
  10193.259  10193.250  0.500  0.125909  91.968434  81.088085  27.390876
  10194.986  10194.980  0.500  0.125554  91.725731  80.902842  27.367070
  10196.733  10196.730  0.500  0.125148  92.002086  81.179504  27.506704
  10198.489  10198.490  0.500  0.124890  91.966938  81.169498  27.555313
  10200.277  10200.280  0.500  0.124471  91.928022  81.169149  27.607474
  10202.083  10202.080  0.500  0.124064  91.883308  81.162642  27.649681
  10203.922  10203.910  0.500  0.123858  91.843407  81.144123  27.681732
  10205.753  10205.750  0.500  0.123454  91.794046  81.133281  27.701843
  10207.607  10207.610  0.500  0.123066  91.748801  81.124783  27.717645
  10209.493  10209.490  0.500  0.122720  91.716322  81.124087  27.731447
  10211.384  10211.390  0.500  0.122414  91.674105  81.111565  27.736388
  10213.326  10213.310  0.500  0.122097  91.633992  81.101809  27.740641
  10215.264  10215.250  0.500  0.121756  91.595988  81.095859  27.746736
  10217.221  10217.210  0.500  0.121370  91.558619  81.094023  27.751999
  10219.179  10219.180  0.500  0.121127  91.511722  81.072217  27.763222
  10221.196  10221.180  0.500  0.120819  91.480758  81.069751  27.782689
  10223.196  10223.190  0.500  0.120302  91.439924  81.075486  27.807455
  10225.224  10225.220  0.500  0.120007  91.355271  81.024280  27.809685
  10227.284  10227.280  0.500  0.119744  91.351466  81.042244  27.840989
  10229.372  10229.350  0.500  0.119314  91.318125  81.047472  27.863216
  10231.439  10231.440  0.500  0.118911  91.278589  81.045050  27.882616
  10233.561  10233.550  0.500  0.118504  91.228933  81.033959  27.898380
  10235.693  10235.680  0.500  0.118144  91.174062  81.014368  27.911813
  10237.821  10237.820  0.500  0.117804  91.050808  80.932355  27.902647
  10240.009  10239.990  0.500  0.117512  91.032576  80.939745  27.918225
  10242.198  10242.180  0.500  0.117181  91.069121  80.999119  27.946423
  10244.393  10244.380  0.500  0.116721  91.017113  80.990050  27.941945
  10246.611  10246.600  0.500  0.116585  90.983552  80.971178  27.937595
  10248.862  10248.850  0.500  0.116162  90.923091  80.951645  27.924634
  10251.119  10251.110  0.500  0.115816  90.886613  80.947130  27.916662
  10253.399  10253.390  0.500  0.115421  90.836131  80.934185  27.901290
  10255.717  10255.690  0.500  0.114998  90.783469  80.921485  27.886134
  10258.013  10258.010  0.500  0.114707  90.737154  80.903702  27.882082
  10260.370  10260.350  0.500  0.114277  91.021801  81.192415  27.987739
  10262.709  10262.700  0.500  0.113845  90.979664  81.189879  28.002821
  10265.095  10265.080  0.500  0.113643  90.930664  81.162610  28.016094
  10267.483  10267.470  0.500  0.113098  90.879197  81.160860  28.033369
  10269.903  10269.890  0.500  0.112648  90.834537  81.157484  28.049161
  10272.324  10272.320  0.500  0.112243  90.775214  81.137343  28.058408
  10274.788  10274.770  0.500  0.111805  90.695323  81.101476  28.067479
  10277.262  10277.250  0.500  0.111439  90.425077  80.889417  28.020873
  10279.747  10279.740  0.500  0.110940  90.641021  81.123033  28.135593
  10282.274  10282.250  0.500  0.110497  90.588637  81.112044  28.168071
  10284.775  10284.770  0.500  0.110045  90.538004  81.103360  28.204412
  10287.336  10287.320  0.500  0.109637  90.496107  81.098949  28.244232
  10289.917  10289.890  0.500  0.109126  90.430732  81.081770  28.273353
  10292.486  10292.470  0.500  0.108722  90.373317  81.063057  28.295910
  10295.098  10295.080  0.500  0.108332  90.322499  81.049044  28.310218
  10297.729  10297.700  0.500  0.107964  90.274295  81.035646  28.317958
  10300.370  10300.350  0.500  0.107511  90.222602  81.025916  28.320356
  10303.050  10303.010  0.500  0.107143  90.160788  81.000164  28.324983
  10305.709  10305.690  0.500  0.106614  90.106636  80.994369  28.332455
  10308.414  10308.390  0.500  0.106251  90.057658  80.979710  28.341130
  10311.131  10311.110  0.500  0.105782  90.004792  80.970194  28.351269
  10313.867  10313.850  0.500  0.105324  89.941940  80.950687  28.364424
  10316.618  10316.600  0.500  0.104953  89.882450  80.927169  28.377933
  10319.404  10319.380  0.500  0.104391  89.813051  80.910179  28.390096
  10322.191  10322.170  0.500  0.104001  89.435162  80.601120  28.305222
  10325.021  10324.990  0.500  0.103555  89.721863  80.895596  28.429904
  10327.843  10327.820  0.500  0.103021  89.654338  80.877896  28.445011
  10330.699  10330.670  0.500  0.102555  89.591260  80.858627  28.467254
  10333.580  10333.550  0.500  0.102016  89.532315  80.849024  28.486228
  10336.449  10336.440  0.500  0.101666  89.473985  80.824671  28.505075
  10339.384  10339.350  0.500  0.101088  89.409897  80.813482  28.520785
  10342.275  10342.270  0.500  0.100670  89.351928  80.794834  28.528707
  10345.255  10345.220  0.500  0.100293  89.291308  80.770433  28.533495
  10348.223  10348.190  0.500  0.099700  89.231841  80.764502  28.540270
  10351.193  10351.170  0.500  0.099307  89.169337  80.739702  28.540088
  10354.211  10354.180  0.500  0.098757  89.104174  80.725032  28.544335
  10357.221  10357.200  0.500  0.098267  89.043449  80.709569  28.548012
  10360.280  10360.250  0.500  0.097818  88.989092  80.696540  28.557140
  10363.318  10363.310  0.500  0.097362  88.904175  80.656327  28.562921
  10366.413  10366.390  0.500  0.096972  88.842127  80.631426  28.575139
  10369.519  10369.490  0.500  0.096354  88.757111  80.604131  28.586556
  10372.637  10372.610  0.500  0.095883  88.701593  80.591649  28.606434
  10375.775  10375.750  0.500  0.095355  88.626773  80.566163  28.620197
  10378.924  10378.900  0.500  0.094927  88.559193  80.539207  28.639599
  10382.103  10382.080  0.500  0.094217  88.492813  80.535983  28.660242
  10385.294  10385.270  0.500  0.093800  88.433778  80.515847  28.691618
  10388.524  10388.490  0.500  0.093263  88.361603  80.493330  28.713691
  10391.756  10391.720  0.500  0.092736  88.288354  80.469010  28.732873
  10395.004  10394.970  0.500  0.092242  88.217999  80.444621  28.750344
  10398.283  10398.250  0.500  0.091660  88.147196  80.426819  28.770993
  10401.568  10401.540  0.500  0.091163  88.087879  80.412666  28.795619
  10404.893  10404.850  0.500  0.090592  88.023216  80.399524  28.813202
  10408.196  10408.170  0.500  0.090052  87.944630  80.371200  28.831308
  10411.549  10411.520  0.500  0.089653  87.880214  80.344315  28.845766
  10414.913  10414.890  0.500  0.088970  87.806103  80.331402  28.858376
  10418.298  10418.270  0.500  0.088442  87.738605  80.312082  28.869297
  10421.709  10421.680  0.500  0.087961  87.673849  80.291445  28.879825
  10425.127  10425.100  0.500  0.087524  87.612744  80.270488  28.893592
  10428.585  10428.550  0.500  0.086924  87.530030  80.242857  28.902936
  10432.050  10432.010  0.500  0.086366  87.469446  80.232094  28.923026
  10435.522  10435.490  0.500  0.085811  87.398171  80.211237  28.938935
  10439.021  10438.990  0.500  0.085312  87.318046  80.177660  28.950147
  10442.545  10442.510  0.500  0.084813  87.243874  80.149528  28.964387
  10446.076  10446.050  0.500  0.084270  87.173547  80.128412  28.983108
  10449.633  10449.600  0.500  0.083734  87.100200  80.103948  28.997212
  10453.207  10453.180  0.500  0.083052  87.019865  80.084633  29.009521
  10456.822  10456.780  0.500  0.082640  86.956843  80.059679  29.022923
  10460.429  10460.390  0.500  0.082159  86.878745  80.026194  29.031536
  10464.049  10464.020  0.500  0.081497  86.789782  79.997258  29.044606
  10467.709  10467.680  0.500  0.080937  86.720347  79.978033  29.060404
  10471.376  10471.350  0.500  0.080340  86.646852  79.957934  29.081529
  10475.065  10475.040  0.500  0.079733  86.560936  79.927123  29.095135
  10478.776  10478.750  0.500  0.079190  86.484353  79.899800  29.111453
  10482.518  10482.480  0.500  0.078609  86.409918  79.877428  29.132116
  10486.248  10486.220  0.500  0.078064  86.345675  79.861548  29.151444
  10490.029  10489.990  0.500  0.077595  86.260443  79.820152  29.158963
  10493.813  10493.780  0.500  0.076891  86.183038  79.804727  29.179169
  10497.604  10497.580  0.500  0.076299  86.105657  79.780232  29.194122
  10501.431  10501.410  0.500  0.075674  86.027327  79.757548  29.211920
  10505.285  10505.250  0.500  0.075115  85.920048  79.702622  29.220289
  10509.138  10509.110  0.500  0.074558  85.850293  79.682235  29.242258
  10513.017  10512.990  0.500  0.073875  85.776532  79.668176  29.264755
  10516.913  10516.890  0.500  0.073436  85.698980  79.631087  29.282313
  10520.846  10520.810  0.500  0.072786  85.615437  79.605204  29.303014
  10524.772  10524.750  0.500  0.072184  85.304297  79.363685  29.242093
  10528.740  10528.710  0.500  0.071539  85.450533  79.551002  29.340183
  10532.701  10532.680  0.500  0.070949  85.378217  79.530577  29.361762
  10536.709  10536.680  0.500  0.070380  85.298906  79.501928  29.380476
  10540.710  10540.690  0.500  0.069747  85.185485  79.446487  29.383433
  10544.762  10544.730  0.500  0.069312  85.116265  79.416470  29.402915
  10548.808  10548.780  0.500  0.068581  85.023311  79.387769  29.416704
  10552.876  10552.850  0.500  0.067962  84.937633  79.356927  29.434741
  10556.977  10556.940  0.500  0.067341  84.673381  79.159120  29.386598
  10561.076  10561.050  0.500  0.066716  84.766498  79.295723  29.462142
  10565.207  10565.180  0.500  0.066080  84.672100  79.257835  29.472842
  10569.361  10569.330  0.500  0.065595  84.613004  79.240927  29.488434
  10573.518  10573.490  0.500  0.064928  84.520003  79.206621  29.500844
  10577.707  10577.680  0.500  0.064246  84.431275  79.177467  29.510781
  10581.910  10581.880  0.500  0.063678  84.325632  79.123340  29.516429
  10586.141  10586.110  0.500  0.063171  84.094851  78.946778  29.478434
  10590.374  10590.350  0.500  0.062443  84.159889  79.065372  29.549497
  10594.641  10594.610  0.500  0.061722  84.054608  79.023469  29.566731
  10598.906  10598.890  0.500  0.061165  83.946719  78.965959  29.575984
  10603.218  10603.190  0.500  0.060477  83.871442  78.949471  29.601320
  10607.539  10607.510  0.500  0.059861  83.784504  78.916235  29.621181
  10611.879  10611.850  0.500  0.059211  83.667353  78.857145  29.631535
  10616.241  10616.210  0.500  0.058470  83.588316  78.841048  29.655616
  10620.622  10620.590  0.500  0.057835  83.498678  78.806505  29.676398
  10625.016  10624.980  0.500  0.057251  83.418148  78.776482  29.693840
  10629.418  10629.400  0.500  0.056658  83.317896  78.728492  29.706692
  10633.864  10633.830  0.500  0.055876  83.212516  78.690417  29.722165
  10638.309  10638.280  0.500  0.055301  83.106200  78.635081  29.730522
  10642.791  10642.750  0.500  0.054697  82.609846  78.212717  29.599255
  10647.268  10647.240  0.500  0.054088  82.953892  78.586241  29.770603
  10651.778  10651.750  0.500  0.053548  82.846935  78.527321  29.775432
  10656.307  10656.280  0.500  0.052797  82.759788  78.503648  29.790392
  10660.869  10660.830  0.500  0.052111  82.186881  78.013713  29.629114
