# XDI/1.0 BlueSky/1.10.0 BMM/2023-1.0-py310-tiled
# Beamline.name: BMM (06BM) -- Beamline for Materials Measurement (NIST)
# Beamline.xray_source: NSLS-II three-pole wiggler
# Beamline.collimation: paraboloid mirror, 5 nm Rh on 30 nm Pt
# Beamline.focusing: not in use
# Beamline.harmonic_rejection: flat mirror, Pt stripe, pitch = 7.0 mrad relative to beam
# Beamline.software: Bluesky 1.10.0, Ophyd 1.7.0, DataBroker 2.0.0b13, Python 3.10.8, 2023-1.0-py310-tiled
# Detector.I0: 10 cm N2
# Detector.I1: 25 cm N2
# Detector.I2: 25 cm N2
# Element.symbol: Tm
# Element.edge: L3
# Element.reference: Tm
# Element.reference_material: Tm2O3
# Facility.name: NSLS-II
# Facility.energy: 3.0
# Facility.current: 400.7
# Facility.mode: top-off
# Facility.GUP: 123456
# Facility.SAF: 301027
# Facility.cycle: 2023-2
# Mono.name: Si(111)
# Mono.d_spacing: 3.1351860
# Mono.encoder_resolution: 0.0000050 deg/ct
# Mono.angle_offset: 16.0754326 deg
# Mono.scan_mode: pseudo channel cut
# Mono.scan_type: step
# Mono.direction: forward in energy
# Sample.name: Tm2TiO5
# Sample.prep: Powder in PEG pellet
# Sample.x: 149.848 mm
# Sample.y: 114.690 mm
# Sample.SDD_position: 205.000 mm
# Scan.experimenters: Bruce Ravel
# Scan.edge_energy: 8648.0
# Scan.start_time: 2023-05-08T19:21:33
# Scan.end_time: 2023-05-08T19:27:17
# Scan.transient_id: 75533
# Scan.uid: 3f165f0e-0a92-4c7c-b390-734ad92f043a
# Scan.plot_hint: ln(I0/It)  --  ln($5/$6)
# Column.1: energy eV
# Column.2: requested_energy eV
# Column.3: measurement_time seconds
# Column.4: xmu 
# Column.5: I0 nA
# Column.6: It nA
# Column.7: Ir nA
# ///////////
# sample courtesy Martin Stennett, University of Sheffield
# -----------
# energy  requested_energy  measurement_time  xmu  I0  It  Ir
  8448.025  8448.000  0.500  0.493271  129.129723  78.849935  28.476722
  8458.094  8458.000  0.500  0.489649  128.964434  79.034764  28.645302
  8468.021  8468.000  0.500  0.486153  128.748724  79.178885  28.794040
  8478.059  8478.000  0.500  0.482395  128.568624  79.365801  28.964844
  8488.035  8488.000  0.500  0.478890  128.365002  79.518351  29.117669
  8498.048  8498.000  0.500  0.475213  128.187655  79.700975  29.282874
  8508.025  8508.000  0.500  0.471686  127.997870  79.864159  29.445151
  8518.027  8518.000  0.500  0.467903  127.789607  80.036484  29.605944
  8528.022  8528.000  0.500  0.464512  126.913130  79.757483  29.603781
  8538.022  8538.000  0.500  0.460883  127.263693  80.268617  29.891701
  8547.996  8548.000  0.500  0.457541  127.121511  80.447302  30.055766
  8557.991  8558.000  0.500  0.454067  126.864289  80.563940  30.199167
  8568.004  8568.000  0.500  0.450438  126.755653  80.787550  30.379448
  8578.006  8578.000  0.500  0.446914  126.505847  80.912996  30.520840
  8588.004  8588.000  0.500  0.443530  125.944004  80.826680  30.574071
  8598.007  8598.000  0.500  0.440173  125.933124  81.091475  30.753737
  8608.008  8608.000  0.500  0.437012  125.409402  81.009927  30.785629
  8618.001  8618.000  0.500  0.434360  87.914627  56.940465  21.654098
  8619.992  8620.000  0.500  0.433544  125.992521  81.669326  31.055717
  8621.978  8622.000  0.500  0.433218  126.874883  82.268088  31.271175
  8623.981  8624.000  0.500  0.432886  126.658456  82.155070  31.216406
  8625.984  8626.000  0.500  0.432619  126.461624  82.049237  31.147368
  8627.979  8628.000  0.500  0.432079  126.294452  81.985096  31.090773
  8629.985  8630.000  0.500  0.431968  126.148195  81.899206  31.009166
  8631.988  8632.000  0.500  0.431922  126.020700  81.820207  30.911426
  8633.977  8634.000  0.500  0.431889  125.879730  81.731370  30.777618
  8635.985  8636.000  0.500  0.432193  125.720491  81.603131  30.579964
  8637.985  8638.000  0.500  0.433005  125.499785  81.393800  30.270037
  8638.472  8638.500  0.500  0.433406  125.419736  81.309228  30.159033
  8638.973  8639.000  0.500  0.433847  125.299933  81.195819  30.026150
  8639.473  8639.500  0.500  0.434316  125.156860  81.065042  29.869785
  8639.976  8640.000  0.500  0.435010  124.971609  80.888931  29.684231
  8640.473  8640.500  0.500  0.435598  124.679341  80.652279  29.451277
  8640.980  8641.000  0.500  0.436372  124.181935  80.268364  29.155226
  8641.484  8641.500  0.500  0.437091  123.122397  79.526298  28.720510
  8641.988  8642.000  0.500  0.437934  120.521970  77.781069  27.939337
  8642.482  8642.500  0.500  0.438577  115.314416  74.372424  26.580260
  8642.979  8643.000  0.500  0.439413  110.279428  71.065653  25.269290
  8643.480  8643.500  0.500  0.440025  109.612956  70.592945  24.957087
  8643.984  8644.000  0.500  0.441063  113.322552  72.906323  25.590167
  8644.481  8644.500  0.500  0.442145  118.763522  76.324137  26.556220
  8644.979  8645.000  0.500  0.443543  122.731795  78.764224  27.109641
  8645.480  8645.500  0.500  0.445334  124.390815  79.686059  27.043499
  8645.981  8646.000  0.500  0.447368  124.958893  79.887322  26.648088
  8646.482  8646.500  0.500  0.449803  125.199439  79.846446  26.073590
  8646.993  8647.000  0.500  0.452659  125.313025  79.690919  25.330234
  8647.491  8647.500  0.500  0.455931  125.388952  79.478716  24.420230
  8647.999  8648.000  0.500  0.459661  125.419885  79.202398  23.311848
  8648.490  8648.500  0.500  0.463794  125.436037  78.885850  22.034662
  8648.992  8649.000  0.500  0.468082  125.436882  78.548855  20.616367
  8649.490  8649.500  0.500  0.472207  125.436133  78.225011  19.152928
  8649.991  8650.000  0.500  0.476296  125.429452  77.901640  17.690150
  8650.486  8650.500  0.500  0.480159  125.426963  77.599778  16.326810
  8650.988  8651.000  0.500  0.483459  125.420422  77.340092  15.141547
  8651.483  8651.500  0.500  0.485904  125.399914  77.138622  14.257734
  8651.994  8652.000  0.500  0.487673  125.396012  76.999847  13.656578
  8652.499  8652.500  0.500  0.488874  125.380298  76.897808  13.274036
  8652.995  8653.000  0.500  0.489486  125.365305  76.841585  13.018325
  8653.500  8653.500  0.500  0.489640  125.350558  76.820697  12.853516
  8653.999  8654.000  0.500  0.489229  125.331171  76.840370  12.803825
  8654.501  8654.500  0.500  0.488538  125.316056  76.884274  12.910137
  8654.987  8655.000  0.500  0.487364  125.296757  76.962693  13.209439
  8655.495  8655.500  0.500  0.485747  125.286265  77.080768  13.713644
  8655.994  8656.000  0.500  0.483581  125.268417  77.236899  14.382145
  8656.490  8656.500  0.500  0.481436  125.247274  77.389729  15.171354
  8656.996  8657.000  0.500  0.478785  125.236822  77.588646  16.068936
  8657.495  8657.500  0.500  0.476132  125.212605  77.779723  16.986678
  8658.000  8658.000  0.500  0.473648  125.211289  77.972401  17.869239
  8658.496  8658.500  0.500  0.471503  125.185504  78.123737  18.646458
  8659.005  8659.000  0.500  0.469323  125.171470  78.285411  19.316447
  8659.492  8659.500  0.500  0.467631  125.155277  78.407852  19.859104
  8659.991  8660.000  0.500  0.466014  125.138857  78.524428  20.325796
  8660.491  8660.500  0.500  0.464581  125.123925  78.627639  20.710495
  8660.994  8661.000  0.500  0.463373  125.106093  78.711509  21.039929
  8661.500  8661.500  0.500  0.462306  125.092372  78.786881  21.321369
  8661.996  8662.000  0.500  0.461364  125.074874  78.850076  21.556833
  8662.506  8662.500  0.500  0.460477  125.054968  78.907523  21.760685
  8663.009  8663.000  0.500  0.459869  125.042630  78.947742  21.929852
  8663.509  8663.500  0.500  0.459146  125.026818  78.994795  22.079187
  8664.002  8664.000  0.500  0.458573  125.015679  79.033014  22.205804
  8664.492  8664.500  0.500  0.458244  125.005276  79.052474  22.301448
  8664.992  8665.000  0.500  0.457805  124.986296  79.075145  22.384305
  8665.489  8665.500  0.500  0.457524  124.967098  79.085257  22.441707
  8665.999  8666.000  0.500  0.457322  124.946475  79.088215  22.482760
  8666.496  8666.500  0.500  0.457054  124.930907  79.099493  22.504685
  8667.009  8667.000  0.500  0.456929  124.925479  79.105981  22.507410
  8667.506  8667.500  0.500  0.456775  124.900806  79.102563  22.485772
  8668.007  8668.000  0.500  0.456859  124.886500  79.086832  22.442433
  8668.498  8668.500  0.500  0.456737  124.874437  79.088825  22.399799
  8669.001  8669.000  0.500  0.456795  124.865646  79.078707  22.354000
  8669.492  8669.500  0.500  0.456811  124.860047  79.073872  22.311790
  8669.996  8670.000  0.500  0.456761  124.845020  79.068304  22.277003
  8670.500  8670.500  0.500  0.456583  124.824520  79.069367  22.258528
  8671.001  8671.000  0.500  0.456625  124.808758  79.056087  22.248375
  8671.505  8671.500  0.500  0.456708  124.787816  79.036259  22.249207
  8671.999  8672.000  0.500  0.456391  124.780431  79.056643  22.275047
  8672.503  8672.500  0.500  0.456427  124.765937  79.044583  22.298149
  8673.008  8673.000  0.500  0.456286  124.747051  79.043832  22.339025
  8674.000  8673.990  0.500  0.455905  124.721086  79.057483  22.442305
  8674.996  8674.990  0.500  0.455557  124.700192  79.071764  22.547347
  8676.018  8676.010  0.500  0.455162  124.673983  79.086317  22.624014
  8677.079  8677.060  0.500  0.454845  124.651456  79.097137  22.640233
  8678.124  8678.120  0.500  0.454732  124.627757  79.091021  22.582775
  8679.212  8679.200  0.500  0.454811  124.597187  79.065364  22.455411
  8680.303  8680.300  0.500  0.454939  124.566480  79.035732  22.287371
  8681.440  8681.420  0.500  0.455099  124.541518  79.007328  22.096080
  8682.567  8682.560  0.500  0.455105  124.512921  78.988647  21.908657
  8683.714  8683.710  0.500  0.455296  124.482093  78.954029  21.700096
  8684.903  8684.890  0.500  0.455483  124.450090  78.919001  21.469100
  8686.087  8686.080  0.500  0.455763  124.424117  78.880435  21.222697
  8687.312  8687.300  0.500  0.455901  124.395590  78.851465  20.977464
  8688.532  8688.530  0.500  0.455933  124.366594  78.830559  20.787001
  8689.778  8689.780  0.500  0.455925  124.332263  78.809415  20.672698
  8691.054  8691.050  0.500  0.455660  124.300810  78.810402  20.661220
  8692.346  8692.340  0.500  0.455139  124.267198  78.830149  20.741009
  8693.645  8693.650  0.500  0.454416  124.221236  78.857932  20.887199
  8694.990  8694.980  0.500  0.453355  124.185098  78.918726  21.077997
  8696.342  8696.330  0.500  0.452460  124.139006  78.960008  21.278788
  8697.697  8697.700  0.500  0.451386  124.098880  79.019314  21.476407
  8699.083  8699.080  0.500  0.450502  124.051982  79.059299  21.640992
  8700.501  8700.490  0.500  0.449546  123.986062  79.092895  21.778320
  8701.910  8701.910  0.500  0.448773  123.895483  79.096231  21.871550
  8703.358  8703.350  0.500  0.448000  123.743545  79.060337  21.953902
  8704.820  8704.810  0.500  0.447267  123.364701  78.876044  21.988746
  8706.299  8706.290  0.500  0.446795  121.248899  77.559869  21.706505
  8707.798  8707.790  0.500  0.446211  107.849019  69.028626  19.385988
  8709.321  8709.310  0.500  0.445300  119.432678  76.512420  21.552761
  8710.856  8710.850  0.500  0.444985  123.227737  78.968516  22.286365
  8712.419  8712.410  0.500  0.444683  123.591769  79.225742  22.400781
  8713.992  8713.980  0.500  0.444291  123.672884  79.308794  22.463700
  8715.591  8715.580  0.500  0.443590  123.688733  79.374616  22.515262
  8717.192  8717.190  0.500  0.443391  123.675830  79.382089  22.540443
  8718.838  8718.830  0.500  0.442864  123.644448  79.403791  22.552822
  8720.489  8720.480  0.500  0.442489  123.615009  79.414637  22.552260
  8722.153  8722.150  0.500  0.442102  123.592673  79.431045  22.540454
  8723.854  8723.840  0.500  0.441564  123.557861  79.451373  22.508721
  8725.548  8725.550  0.500  0.441211  124.004305  79.766635  22.548626
  8727.287  8727.280  0.500  0.440861  123.962494  79.767633  22.485366
  8729.039  8729.030  0.500  0.440241  123.925372  79.793226  22.422312
  8730.791  8730.790  0.500  0.439953  123.887082  79.791540  22.358821
  8732.594  8732.580  0.500  0.439541  123.843162  79.796148  22.300119
  8734.397  8734.380  0.500  0.438916  123.806033  79.822092  22.260094
  8736.215  8736.210  0.500  0.438276  123.757128  79.841644  22.231475
  8738.069  8738.050  0.500  0.437806  123.716060  79.852643  22.217267
  8739.924  8739.910  0.500  0.437629  123.672613  79.838710  22.207822
  8741.799  8741.790  0.500  0.437069  123.635197  79.859284  22.221984
  8743.708  8743.690  0.500  0.436563  123.584907  79.867251  22.239012
  8745.615  8745.610  0.500  0.435827  123.542977  79.898926  22.265698
  8747.562  8747.550  0.500  0.435358  123.503091  79.910597  22.281346
  8749.520  8749.510  0.500  0.434782  123.459763  79.928538  22.295055
  8751.485  8751.480  0.500  0.434244  123.413384  79.941518  22.308733
  8753.491  8753.480  0.500  0.433562  123.362894  79.963367  22.329106
  8755.498  8755.490  0.500  0.433023  123.315435  79.975686  22.355937
  8757.535  8757.520  0.500  0.432352  123.287370  80.011131  22.393604
  8759.590  8759.580  0.500  0.431678  123.242153  80.035768  22.425285
  8761.659  8761.650  0.500  0.430890  123.193703  80.067364  22.455359
  8763.749  8763.740  0.500  0.430215  123.137552  80.084842  22.481463
  8765.856  8765.850  0.500  0.429487  123.089791  80.112094  22.503253
  8767.994  8767.980  0.500  0.428702  123.038436  80.141617  22.530971
  8770.140  8770.120  0.500  0.427938  122.990799  80.171807  22.565203
  8772.304  8772.290  0.500  0.427198  122.939260  80.197469  22.619227
  8774.501  8774.480  0.500  0.426304  122.886046  80.234500  22.689657
  8776.693  8776.680  0.500  0.425799  122.838723  80.244137  22.771306
  8778.916  8778.900  0.500  0.425051  122.784088  80.268417  22.858388
  8781.167  8781.150  0.500  0.424243  122.739600  80.304243  22.950605
  8783.416  8783.410  0.500  0.423445  122.667293  80.321010  23.035199
  8785.709  8785.690  0.500  0.422679  122.608962  80.344271  23.103826
  8787.996  8787.990  0.500  0.422115  122.551979  80.352275  23.139652
  8790.335  8790.310  0.500  0.421505  122.499958  80.367190  23.144015
  8792.662  8792.650  0.500  0.420704  122.432349  80.387206  23.119544
  8795.023  8795.000  0.500  0.420236  122.373516  80.386166  23.088556
  8797.392  8797.380  0.500  0.419625  122.316088  80.397514  23.065968
  8799.796  8799.770  0.500  0.418801  122.262207  80.428380  23.055253
  8802.204  8802.190  0.500  0.418347  122.223605  80.439455  23.047674
  8804.634  8804.620  0.500  0.417558  122.151563  80.455557  23.038081
  8807.092  8807.070  0.500  0.416781  122.092192  80.478914  23.022620
  8809.564  8809.550  0.500  0.416126  122.034089  80.493367  22.991157
  8812.055  8812.040  0.500  0.415315  121.968207  80.515188  22.955857
  8814.564  8814.550  0.500  0.414646  121.910654  80.531037  22.925149
  8817.094  8817.070  0.500  0.413877  121.859236  80.559012  22.913806
  8819.633  8819.620  0.500  0.413009  121.796675  80.587539  22.925987
  8822.213  8822.190  0.500  0.412203  121.734225  80.611173  22.968916
  8824.781  8824.770  0.500  0.411414  121.683048  80.640843  23.040936
  8827.402  8827.380  0.500  0.410589  121.623486  80.667946  23.133000
  8830.010  8830.000  0.500  0.409821  121.567689  80.692838  23.222673
  8832.674  8832.650  0.500  0.409106  121.509646  80.712048  23.296071
  8835.322  8835.310  0.500  0.408212  121.454745  80.747680  23.354193
  8838.013  8837.990  0.500  0.407322  121.403623  80.785562  23.405488
  8840.705  8840.690  0.500  0.406499  121.339304  80.809254  23.434585
  8843.432  8843.410  0.500  0.405674  121.274108  80.832539  23.448548
  8846.175  8846.150  0.500  0.404883  121.219933  80.860342  23.453284
  8848.916  8848.900  0.500  0.404218  121.162491  80.875791  23.458703
  8851.699  8851.680  0.500  0.403441  121.108364  80.902531  23.468232
  8854.488  8854.470  0.500  0.402727  121.051782  80.922450  23.476611
  8857.302  8857.290  0.500  0.401958  120.989355  80.942978  23.488060
  8860.144  8860.120  0.500  0.401084  120.933845  80.976570  23.499312
  8862.989  8862.970  0.500  0.400291  120.872312  80.999589  23.513373
  8865.862  8865.850  0.500  0.399251  120.801630  81.036421  23.548582
  8868.758  8868.740  0.500  0.398320  120.750469  81.077528  23.601780
  8871.669  8871.650  0.500  0.397388  120.694643  81.115662  23.670200
  8874.596  8874.570  0.500  0.396560  120.642174  81.147527  23.738935
  8877.538  8877.520  0.500  0.395550  120.577312  81.185847  23.802939
  8880.520  8880.490  0.500  0.394890  120.509339  81.193671  23.853945
  8883.490  8883.470  0.500  0.394004  120.449754  81.225446  23.898600
  8886.513  8886.480  0.500  0.393150  120.388485  81.253471  23.933091
  8889.501  8889.500  0.500  0.392265  120.325811  81.283096  23.953876
  8892.569  8892.550  0.500  0.391376  120.261189  81.311712  23.966188
  8895.632  8895.610  0.500  0.390557  120.195561  81.333921  23.974588
  8898.708  8898.690  0.500  0.389678  120.135267  81.364632  23.986746
  8901.814  8901.790  0.500  0.388610  120.054004  81.396427  23.997896
  8904.928  8904.910  0.500  0.387593  119.973781  81.424801  24.013202
  8908.079  8908.050  0.500  0.386689  119.840423  81.407914  24.014146
  8911.208  8911.200  0.500  0.385906  118.563704  80.603675  23.783112
  8914.408  8914.380  0.500  0.384961  119.757438  81.492192  24.050472
  8917.576  8917.570  0.500  0.384092  117.492848  80.020715  23.632593
  8920.814  8920.790  0.500  0.383150  119.648875  81.565877  24.118315
  8924.038  8924.020  0.500  0.382220  118.244726  80.683655  23.885316
  8927.292  8927.270  0.500  0.381169  119.555141  81.663666  24.204802
  8930.562  8930.550  0.500  0.380232  117.954724  80.646001  23.932360
  8933.859  8933.840  0.500  0.379515  119.457817  81.732188  24.291852
  8937.171  8937.150  0.500  0.378386  119.309462  81.722961  24.330493
  8940.490  8940.470  0.500  0.377381  119.275049  81.781533  24.393033
  8943.839  8943.820  0.500  0.376441  119.203528  81.809315  24.450936
  8947.204  8947.190  0.500  0.375487  119.128270  81.835678  24.508122
  8950.592  8950.570  0.500  0.374525  119.046359  81.858126  24.555410
  8954.008  8953.980  0.500  0.373527  118.949844  81.873488  24.586650
  8957.419  8957.400  0.500  0.372523  118.878250  81.906369  24.618824
  8960.874  8960.850  0.500  0.371511  118.803428  81.937690  24.647654
  8964.328  8964.310  0.500  0.370619  118.677105  81.923663  24.660894
  8967.813  8967.790  0.500  0.369696  118.638981  81.972928  24.688825
  8971.304  8971.290  0.500  0.368865  118.560545  81.986873  24.711399
  8974.829  8974.810  0.500  0.367754  118.491200  82.029941  24.749841
  8978.374  8978.350  0.500  0.366694  118.396211  82.051110  24.791025
  8981.919  8981.900  0.500  0.365682  118.024989  81.876716  24.775500
  8985.501  8985.480  0.500  0.364756  118.174638  82.056479  24.870016
  8989.097  8989.080  0.500  0.363798  118.073563  82.064880  24.909167
  8992.706  8992.690  0.500  0.362698  117.789938  81.957801  24.908915
  8996.343  8996.320  0.500  0.361906  117.949480  82.133862  24.993879
  9000.003  8999.980  0.500  0.360896  117.777394  82.096871  25.010776
  9003.670  9003.650  0.500  0.359824  115.965445  80.920594  24.678018
  9007.368  9007.340  0.500  0.358621  117.649645  82.194638  25.088198
  9011.069  9011.050  0.500  0.357644  115.389319  80.694259  24.656914
  9014.794  9014.780  0.500  0.356545  117.502213  82.262235  25.163769
  9018.550  9018.520  0.500  0.355541  117.319074  82.216499  25.185772
  9022.306  9022.290  0.500  0.354637  117.372416  82.328266  25.256475
  9026.097  9026.080  0.500  0.353681  117.289096  82.348567  25.293829
  9029.905  9029.880  0.500  0.352468  117.198129  82.384523  25.331078
  9033.720  9033.710  0.500  0.351354  117.111542  82.415435  25.363317
  9037.574  9037.550  0.500  0.350455  117.005698  82.414997  25.384245
  9041.427  9041.410  0.500  0.349407  115.716496  81.592384  25.154729
  9045.301  9045.290  0.500  0.348243  116.773221  82.433372  25.438431
  9049.207  9049.190  0.500  0.347075  116.691914  82.472248  25.477636
  9053.127  9053.110  0.500  0.346089  116.599468  82.488266  25.516282
  9057.075  9057.050  0.500  0.345018  116.503313  82.508515  25.556461
  9061.034  9061.010  0.500  0.343771  116.398586  82.537233  25.603941
  9065.000  9064.980  0.500  0.342805  116.184842  82.465269  25.620377
  9069.001  9068.980  0.500  0.341696  116.197779  82.565942  25.689507
  9073.013  9072.990  0.500  0.340737  116.105559  82.579619  25.735578
  9077.043  9077.030  0.500  0.339496  116.005876  82.611184  25.787912
  9081.094  9081.080  0.500  0.338398  114.800343  81.842448  25.587089
  9085.156  9085.150  0.500  0.337265  115.748667  82.612076  25.867489
  9089.251  9089.240  0.500  0.336363  115.660415  82.623596  25.914789
  9093.370  9093.350  0.500  0.335188  115.560383  82.649184  25.968935
  9097.493  9097.480  0.500  0.333998  115.467429  82.681061  26.022765
  9101.635  9101.630  0.500  0.332860  115.358671  82.697269  26.068164
  9105.808  9105.790  0.500  0.331753  115.172995  82.655546  26.089974
  9109.993  9109.980  0.500  0.330604  115.126763  82.717421  26.132229
  9114.186  9114.180  0.500  0.329487  115.025477  82.736990  26.160796
  9118.425  9118.410  0.500  0.328405  114.923490  82.753090  26.186757
  9122.661  9122.650  0.500  0.327358  114.810706  82.758518  26.206467
  9126.927  9126.910  0.500  0.326384  114.697961  82.757775  26.230916
  9131.207  9131.190  0.500  0.325157  114.575216  82.770772  26.264557
  9135.506  9135.490  0.500  0.323956  114.439451  82.771988  26.307413
  9139.827  9139.810  0.500  0.322859  114.281094  82.748220  26.341181
  9144.173  9144.150  0.500  0.321588  110.463447  80.085629  25.530060
  9148.528  9148.510  0.500  0.320721  114.198416  82.865286  26.463021
  9152.912  9152.890  0.500  0.319493  113.993798  82.818459  26.491024
  9157.297  9157.280  0.500  0.318351  110.313914  80.236550  25.702987
  9161.722  9161.700  0.500  0.317110  113.853348  82.913782  26.606226
  9166.155  9166.130  0.500  0.315968  113.535189  82.776535  26.604194
  9170.589  9170.580  0.500  0.314700  113.713336  83.011666  26.721534
  9175.075  9175.050  0.500  0.313637  113.537700  82.971597  26.753137
  9179.554  9179.540  0.500  0.312384  113.248028  82.863677  26.764534
  9184.067  9184.050  0.500  0.311249  113.434071  83.094031  26.880627
  9188.602  9188.580  0.500  0.310037  113.235826  83.049415  26.907294
  9193.150  9193.130  0.500  0.308849  113.073885  83.029184  26.932501
