# XDI/1.0 BlueSky/1.10.0 BMM/2023-1.0-py310-tiled
# Beamline.name: BMM (06BM) -- Beamline for Materials Measurement (NIST)
# Beamline.xray_source: NSLS-II three-pole wiggler
# Beamline.collimation: paraboloid mirror, 5 nm Rh on 30 nm Pt
# Beamline.focusing: not in use
# Beamline.harmonic_rejection: flat mirror, Pt stripe, pitch = 7.0 mrad relative to beam
# Beamline.software: Bluesky 1.10.0, Ophyd 1.7.0, DataBroker 2.0.0b13, Python 3.10.8, 2023-1.0-py310-tiled
# Detector.I0: 10 cm N2
# Detector.I1: 25 cm N2
# Detector.I2: 25 cm N2
# Element.symbol: Ho
# Element.edge: L1
# Element.reference: Ho
# Element.reference_material: Ho2O3
# Facility.name: NSLS-II
# Facility.energy: 3.0
# Facility.current: 399.5
# Facility.mode: top-off
# Facility.GUP: 123456
# Facility.SAF: 301027
# Facility.cycle: 2023-2
# Mono.name: Si(111)
# Mono.d_spacing: 3.1351860
# Mono.encoder_resolution: 0.0000050 deg/ct
# Mono.angle_offset: 16.0754326 deg
# Mono.scan_mode: pseudo channel cut
# Mono.scan_type: step
# Mono.direction: forward in energy
# Sample.name: Ho2TiO5
# Sample.prep: Powder in PEG pellet
# Sample.x: 149.848 mm
# Sample.y: 114.690 mm
# Sample.SDD_position: 205.000 mm
# Scan.experimenters: Bruce Ravel
# Scan.edge_energy: 9394.2
# Scan.start_time: 2023-05-08T22:30:10
# Scan.end_time: 2023-05-08T22:36:04
# Scan.transient_id: 75678
# Scan.uid: 7e0c8198-df56-46ce-a97c-caa9f9462e7e
# Scan.plot_hint: ln(I0/It)  --  ln($5/$6)
# Column.1: energy eV
# Column.2: requested_energy eV
# Column.3: measurement_time seconds
# Column.4: xmu 
# Column.5: I0 nA
# Column.6: It nA
# Column.7: Ir nA
# ///////////
# sample courtesy Martin Stennett, University of Sheffield
# -----------
# energy  requested_energy  measurement_time  xmu  I0  It  Ir
  9194.228  9194.200  0.500  0.440356  111.624612  71.864745  26.435292
  9204.226  9204.200  0.500  0.437469  111.376670  71.912384  26.535968
  9214.228  9214.200  0.500  0.434699  111.158936  71.970879  26.645135
  9224.216  9224.200  0.500  0.431875  110.956151  72.042743  26.735144
  9234.259  9234.200  0.500  0.429192  110.770670  72.115564  26.824229
  9244.243  9244.200  0.500  0.426506  110.575102  72.181844  26.917651
  9254.249  9254.200  0.500  0.423711  110.385165  72.259539  27.023969
  9264.233  9264.200  0.500  0.421165  110.192002  72.316991  27.112480
  9274.232  9274.200  0.500  0.418577  109.973526  72.360632  27.194353
  9284.224  9284.200  0.500  0.415966  109.825635  72.452246  27.302475
  9294.181  9294.200  0.500  0.413138  109.617646  72.519840  27.392987
  9304.205  9304.200  0.500  0.410802  109.663427  72.719808  27.526523
  9314.207  9314.200  0.500  0.408061  109.502996  72.812765  27.630302
  9324.208  9324.200  0.500  0.405454  108.450333  72.301021  27.508366
  9334.208  9334.200  0.500  0.402844  109.089836  72.917447  27.816657
  9344.200  9344.200  0.500  0.400304  108.881515  72.963291  27.907097
  9354.207  9354.200  0.500  0.397785  108.688217  73.017469  27.999810
  9364.209  9364.200  0.500  0.395253  108.477755  73.060820  28.084475
  9366.184  9366.200  0.500  0.394829  108.821740  73.323566  28.195902
  9368.183  9368.200  0.500  0.394273  108.751965  73.317289  28.202501
  9370.182  9370.200  0.500  0.393862  108.694602  73.308795  28.208465
  9372.179  9372.200  0.500  0.393332  108.639469  73.310409  28.217684
  9374.172  9374.200  0.500  0.393049  108.583540  73.293386  28.221058
  9376.174  9376.200  0.500  0.392652  108.534071  73.289120  28.228649
  9378.177  9378.200  0.500  0.392016  108.483709  73.301685  28.241750
  9380.181  9380.200  0.500  0.391401  108.434657  73.313626  28.248588
  9382.171  9382.200  0.500  0.391111  108.380940  73.298587  28.250305
  9384.176  9384.200  0.500  0.390868  108.326419  73.279487  28.246765
  9384.670  9384.700  0.500  0.390704  108.294850  73.270180  28.245558
  9385.160  9385.200  0.500  0.390582  108.273739  73.264842  28.244758
  9385.673  9385.700  0.500  0.390415  108.246844  73.258857  28.241704
  9386.168  9386.200  0.500  0.390333  108.228298  73.252351  28.238812
  9386.673  9386.700  0.500  0.390312  108.201695  73.235821  28.233396
  9387.175  9387.200  0.500  0.390236  108.184709  73.229952  28.231279
  9387.673  9387.700  0.500  0.390231  108.162456  73.215231  28.226312
  9388.179  9388.200  0.500  0.390196  108.137879  73.201157  28.215936
  9388.673  9388.700  0.500  0.390087  108.116113  73.194358  28.215163
  9389.175  9389.200  0.500  0.390017  108.100922  73.189248  28.212758
  9389.670  9389.700  0.500  0.389905  108.079318  73.182785  28.204923
  9390.168  9390.200  0.500  0.389931  108.057918  73.166400  28.199932
  9390.682  9390.700  0.500  0.389834  108.034445  73.157587  28.193506
  9391.176  9391.200  0.500  0.389764  108.017204  73.151066  28.189192
  9391.678  9391.700  0.500  0.389674  108.006840  73.150629  28.186599
  9392.188  9392.200  0.500  0.389633  107.990818  73.142774  28.177865
  9392.683  9392.700  0.500  0.389782  107.973024  73.119837  28.159882
  9393.182  9393.200  0.500  0.389806  107.954228  73.105324  28.148497
  9393.688  9393.700  0.500  0.389906  107.937927  73.086981  28.132146
  9394.187  9394.200  0.500  0.389957  107.919794  73.070975  28.113957
  9394.690  9394.700  0.500  0.390142  107.910157  73.050945  28.088237
  9395.192  9395.200  0.500  0.390338  107.883104  73.018344  28.057066
  9395.687  9395.700  0.500  0.390623  107.872364  72.990231  28.022790
  9396.183  9396.200  0.500  0.390934  107.857092  72.957231  27.983824
  9396.682  9396.700  0.500  0.391471  107.841537  72.907540  27.931914
  9397.185  9397.200  0.500  0.391817  107.827576  72.872890  27.887969
  9397.684  9397.700  0.500  0.392270  107.810548  72.828351  27.837682
  9398.194  9398.200  0.500  0.392666  107.798627  72.791451  27.791407
  9398.690  9398.700  0.500  0.393102  107.777681  72.745610  27.745073
  9399.197  9399.200  0.500  0.393585  107.762973  72.700545  27.699840
  9399.700  9399.700  0.500  0.393977  107.750790  72.663827  27.656768
  9400.199  9400.200  0.500  0.394409  107.736192  72.622601  27.612126
  9400.703  9400.700  0.500  0.394750  107.724947  72.590313  27.569981
  9401.202  9401.200  0.500  0.395170  107.702524  72.544741  27.525114
  9401.698  9401.700  0.500  0.395425  107.693785  72.520332  27.483320
  9402.186  9402.200  0.500  0.395884  107.685866  72.481749  27.440634
  9402.693  9402.700  0.500  0.396312  107.671610  72.441133  27.395058
  9403.189  9403.200  0.500  0.396829  107.654920  72.392445  27.344891
  9403.689  9403.700  0.500  0.397230  107.640728  72.353904  27.295090
  9404.201  9404.200  0.500  0.397693  107.628853  72.312398  27.242792
  9404.693  9404.700  0.500  0.398258  107.615379  72.262536  27.183603
  9405.200  9405.200  0.500  0.398891  107.610557  72.213576  27.124700
  9405.704  9405.700  0.500  0.399517  107.587593  72.152927  27.055200
  9406.208  9406.200  0.500  0.400330  107.575489  72.086180  26.987632
  9406.701  9406.700  0.500  0.401216  107.563870  72.014616  26.910048
  9407.201  9407.200  0.500  0.401878  107.549357  71.957217  26.835062
  9407.693  9407.700  0.500  0.402629  107.533160  71.892392  26.756316
  9408.190  9408.200  0.500  0.403458  107.520569  71.824405  26.674007
  9408.694  9408.700  0.500  0.404310  107.505543  71.753182  26.597089
  9409.187  9409.200  0.500  0.405037  107.500620  71.697745  26.531761
  9409.691  9409.700  0.500  0.405731  107.484532  71.637322  26.471073
  9410.195  9410.200  0.500  0.406298  107.473148  71.589079  26.425852
  9410.700  9410.700  0.500  0.406799  107.459451  71.544165  26.391250
  9411.204  9411.200  0.500  0.407065  107.448735  71.517987  26.377177
  9411.709  9411.700  0.500  0.406956  107.440321  71.520186  26.377411
  9412.198  9412.200  0.500  0.406855  107.424890  71.517090  26.380985
  9412.703  9412.700  0.500  0.406676  107.413470  71.522317  26.391938
  9413.200  9413.200  0.500  0.406315  107.408009  71.544523  26.414221
  9413.697  9413.700  0.500  0.405877  107.399764  71.570349  26.435568
  9414.190  9414.200  0.500  0.405563  107.383136  71.581733  26.450650
  9414.691  9414.700  0.500  0.405137  107.370864  71.604067  26.464710
  9415.196  9415.200  0.500  0.404841  107.358964  71.617294  26.474324
  9415.697  9415.700  0.500  0.404506  107.344644  71.631765  26.480359
  9416.202  9416.200  0.500  0.404252  107.335034  71.643550  26.484851
  9416.703  9416.700  0.500  0.403928  107.323180  71.658864  26.487689
  9417.204  9417.200  0.500  0.403678  107.307937  71.666579  26.490186
  9417.702  9417.700  0.500  0.403358  107.294969  71.680854  26.491181
  9418.203  9418.200  0.500  0.403073  107.285600  71.695037  26.495761
  9418.705  9418.700  0.500  0.402802  107.271461  71.705035  26.499129
  9419.206  9419.200  0.500  0.402563  107.260927  71.715094  26.505438
  9420.202  9420.190  0.500  0.402020  107.236227  71.737541  26.519535
  9421.201  9421.190  0.500  0.401449  107.216906  71.765569  26.541951
  9422.220  9422.210  0.500  0.401009  107.194718  71.782300  26.569077
  9423.281  9423.260  0.500  0.400657  107.177191  71.795868  26.605302
  9424.339  9424.320  0.500  0.400226  107.154498  71.811545  26.650290
  9425.412  9425.400  0.500  0.399917  107.140274  71.824211  26.699775
  9426.513  9426.500  0.500  0.399421  107.121000  71.846934  26.753556
  9427.633  9427.620  0.500  0.398707  107.104542  71.887200  26.819029
  9428.772  9428.760  0.500  0.397817  107.084776  71.937921  26.882228
  9429.919  9429.910  0.500  0.397057  107.061291  71.976836  26.945167
  9431.093  9431.090  0.500  0.396234  107.040171  72.021878  27.004465
  9432.287  9432.280  0.500  0.395511  107.019443  72.060012  27.052427
  9433.512  9433.500  0.500  0.394772  106.990356  72.093680  27.096704
  9434.737  9434.730  0.500  0.394141  106.964024  72.121421  27.131208
  9435.994  9435.980  0.500  0.393639  106.688461  71.971765  27.093102
  9437.258  9437.250  0.500  0.393184  106.490299  71.870760  27.067664
  9438.546  9438.540  0.500  0.392790  106.851516  72.142988  27.183986
  9439.865  9439.850  0.500  0.392443  106.853250  72.169180  27.197925
  9441.192  9441.180  0.500  0.392118  106.833097  72.179072  27.207498
  9442.534  9442.530  0.500  0.391924  106.810780  72.177981  27.210248
  9443.908  9443.900  0.500  0.391979  106.792622  72.161726  27.203664
  9445.286  9445.280  0.500  0.391779  106.761718  72.155293  27.200615
  9446.703  9446.690  0.500  0.391820  106.738705  72.136796  27.193965
  9448.121  9448.110  0.500  0.391809  106.714428  72.121139  27.190020
  9449.558  9449.550  0.500  0.391827  106.690549  72.103735  27.178883
  9451.015  9451.010  0.500  0.391647  106.659315  72.095610  27.170309
  9452.503  9452.490  0.500  0.391601  106.633948  72.081763  27.158319
  9453.988  9453.990  0.500  0.391653  106.610099  72.061901  27.142230
  9455.512  9455.510  0.500  0.391500  106.582375  72.054151  27.130476
  9457.063  9457.050  0.500  0.391099  106.552088  72.062595  27.122212
  9458.619  9458.610  0.500  0.390759  106.519861  72.065258  27.112881
  9460.187  9460.180  0.500  0.390474  106.491605  72.066681  27.100707
  9461.790  9461.780  0.500  0.390109  106.467572  72.076770  27.093688
  9463.406  9463.390  0.500  0.389652  106.430709  72.084693  27.084747
  9465.033  9465.030  0.500  0.389470  106.406751  72.081648  27.081649
  9466.688  9466.680  0.500  0.389056  106.374818  72.089804  27.086626
  9468.364  9468.350  0.500  0.388614  106.334320  72.094221  27.096340
  9470.047  9470.040  0.500  0.388226  106.308093  72.104415  27.115727
  9471.747  9471.750  0.500  0.387783  106.278970  72.116607  27.139308
  9473.497  9473.480  0.500  0.387196  106.240985  72.133170  27.171585
  9475.237  9475.230  0.500  0.386573  106.203652  72.152739  27.210734
  9476.996  9476.990  0.500  0.386038  106.167765  72.166988  27.247464
  9478.788  9478.780  0.500  0.385525  106.129597  72.178029  27.287029
  9480.595  9480.580  0.500  0.384959  106.095988  72.196064  27.324262
  9482.415  9482.410  0.500  0.384534  106.061095  72.202997  27.351097
  9484.263  9484.250  0.500  0.383875  106.032681  72.231222  27.381432
  9486.119  9486.110  0.500  0.383327  105.989001  72.241048  27.402519
  9488.000  9487.990  0.500  0.382872  105.958118  72.252860  27.417946
  9489.900  9489.890  0.500  0.382346  105.919954  72.264857  27.433769
  9491.829  9491.810  0.500  0.381753  105.880863  72.281001  27.450843
  9493.754  9493.750  0.500  0.381329  105.840027  72.283791  27.458398
  9495.719  9495.710  0.500  0.380832  105.805679  72.296210  27.475731
  9497.693  9497.680  0.500  0.380335  105.760548  72.301329  27.495335
  9499.683  9499.680  0.500  0.379694  105.723702  72.322470  27.520449
  9501.706  9501.690  0.500  0.379180  105.681456  72.330775  27.547177
  9503.733  9503.720  0.500  0.378675  105.640028  72.338939  27.571494
  9505.788  9505.780  0.500  0.378111  105.601871  72.353585  27.599860
  9507.864  9507.850  0.500  0.377481  105.563693  72.372986  27.625387
  9509.948  9509.940  0.500  0.376825  105.520378  72.390784  27.653335
  9512.061  9512.050  0.500  0.376367  105.481710  72.397387  27.675664
  9514.190  9514.180  0.500  0.375794  105.439582  72.409947  27.699433
  9516.328  9516.320  0.500  0.375299  105.397625  72.416993  27.717742
  9518.514  9518.490  0.500  0.374811  105.353853  72.422268  27.733419
  9520.693  9520.680  0.500  0.374357  105.316895  72.429760  27.744936
  9522.893  9522.880  0.500  0.373853  105.270543  72.434368  27.753247
  9525.117  9525.100  0.500  0.373602  105.227501  72.422905  27.757262
  9527.358  9527.350  0.500  0.373164  105.185221  72.425517  27.760790
  9529.636  9529.610  0.500  0.372632  105.142456  72.434610  27.764058
  9531.895  9531.890  0.500  0.372071  105.094507  72.442192  27.768169
  9534.206  9534.190  0.500  0.371544  105.047548  72.448008  27.772082
  9536.518  9536.510  0.500  0.370967  105.000879  72.457577  27.786821
  9538.862  9538.850  0.500  0.370515  104.957856  72.460697  27.803484
  9541.224  9541.200  0.500  0.369878  104.908558  72.472800  27.821150
  9543.595  9543.580  0.500  0.369189  104.864045  72.491952  27.846296
  9545.990  9545.970  0.500  0.368574  104.817018  72.504039  27.865622
  9548.399  9548.390  0.500  0.367941  104.770362  72.517652  27.889688
  9550.832  9550.820  0.500  0.367195  104.715649  72.533863  27.913752
  9553.271  9553.270  0.500  0.366585  104.670464  72.546833  27.940631
  9555.774  9555.750  0.500  0.365915  104.619855  72.560363  27.968503
  9558.247  9558.240  0.500  0.365283  104.575873  72.575704  28.004041
  9560.772  9560.750  0.500  0.364502  104.522769  72.595531  28.042748
  9563.283  9563.270  0.500  0.363935  104.477278  72.605091  28.074760
  9565.831  9565.820  0.500  0.363338  104.428773  72.614722  28.105949
  9568.408  9568.390  0.500  0.362773  104.378578  72.620781  28.128952
  9570.986  9570.970  0.500  0.362030  104.323222  72.636254  28.151933
  9573.606  9573.580  0.500  0.361431  104.270847  72.643284  28.170196
  9576.215  9576.200  0.500  0.360791  104.219598  72.654081  28.184958
  9578.865  9578.850  0.500  0.360230  104.168415  72.659101  28.200137
  9581.520  9581.510  0.500  0.359633  104.113232  72.663969  28.218041
  9584.209  9584.190  0.500  0.359043  104.066493  72.674236  28.238236
  9586.907  9586.890  0.500  0.358376  104.017121  72.688208  28.260189
  9589.631  9589.610  0.500  0.357676  103.962276  72.700806  28.284347
  9592.364  9592.350  0.500  0.357067  103.907932  72.707067  28.309104
  9595.122  9595.100  0.500  0.356476  103.858153  72.715165  28.332831
  9597.894  9597.880  0.500  0.355719  103.799754  72.729315  28.360475
  9600.696  9600.670  0.500  0.355010  104.134249  73.015412  28.491585
  9603.507  9603.490  0.500  0.354272  104.073895  73.027023  28.517360
  9606.352  9606.320  0.500  0.353602  104.011351  73.032060  28.545680
  9609.187  9609.170  0.500  0.353002  103.953562  73.035269  28.570208
  9612.063  9612.050  0.500  0.352273  103.895765  73.047878  28.597331
  9614.945  9614.940  0.500  0.351561  103.835541  73.057533  28.622816
  9617.877  9617.850  0.500  0.350866  103.602367  72.944185  28.597591
  9620.786  9620.770  0.500  0.350156  103.691507  73.058785  28.655256
  9623.733  9623.720  0.500  0.349416  103.636354  73.073932  28.677021
  9626.699  9626.690  0.500  0.348780  103.571931  73.074981  28.690629
  9629.694  9629.670  0.500  0.348093  103.511287  73.082398  28.705254
  9632.687  9632.680  0.500  0.347641  103.449930  73.072132  28.717912
  9635.734  9635.700  0.500  0.346741  103.351394  73.068219  28.731638
  9638.763  9638.750  0.500  0.346062  103.323518  73.098145  28.763674
  9641.834  9641.810  0.500  0.345346  103.259644  73.105307  28.785730
  9644.899  9644.890  0.500  0.344601  103.191190  73.111269  28.807169
  9648.010  9647.990  0.500  0.344008  103.038676  73.046493  28.806890
  9651.127  9651.110  0.500  0.343250  103.045159  73.106470  28.853991
  9654.275  9654.250  0.500  0.342442  103.002227  73.135085  28.885259
  9657.416  9657.400  0.500  0.341620  102.937511  73.149292  28.915344
  9660.600  9660.580  0.500  0.340947  102.861167  73.144209  28.942248
  9663.786  9663.770  0.500  0.340133  102.789262  73.152644  28.968594
  9667.003  9666.990  0.500  0.339467  102.474969  72.977522  28.926062
  9670.238  9670.220  0.500  0.338711  102.624052  73.138984  29.013956
  9673.491  9673.470  0.500  0.337942  102.546560  73.139948  29.039991
  9676.775  9676.750  0.500  0.337080  102.469057  73.147749  29.070082
  9680.061  9680.040  0.500  0.336542  102.397039  73.135640  29.089799
  9683.370  9683.350  0.500  0.335734  102.320452  73.140022  29.114189
  9686.681  9686.670  0.500  0.334880  102.249180  73.151512  29.140531
  9690.059  9690.020  0.500  0.334007  102.174070  73.161605  29.166351
  9693.370  9693.390  0.500  0.333227  102.085983  73.155576  29.182254
  9696.749  9696.770  0.500  0.332400  102.011430  73.162639  29.208534
  9700.167  9700.180  0.500  0.331635  101.934113  73.163127  29.232034
  9703.592  9703.600  0.500  0.330789  101.849243  73.164084  29.253952
  9707.051  9707.050  0.500  0.330082  101.745884  73.141502  29.271729
  9710.521  9710.510  0.500  0.329315  100.891501  72.582990  29.073227
  9714.014  9713.990  0.500  0.328394  101.678599  73.216630  29.351327
  9717.502  9717.490  0.500  0.327616  101.596026  73.214152  29.376087
  9721.032  9721.010  0.500  0.326790  101.514241  73.215634  29.400946
  9724.566  9724.550  0.500  0.325960  101.427144  73.213577  29.419773
  9728.118  9728.100  0.500  0.325178  101.338473  73.206819  29.439703
  9731.694  9731.680  0.500  0.324351  101.273190  73.220126  29.471902
  9735.301  9735.280  0.500  0.323454  101.194289  73.228765  29.495042
  9738.906  9738.890  0.500  0.322754  101.119292  73.225712  29.518995
  9742.547  9742.520  0.500  0.321851  101.041884  73.235777  29.542662
  9746.195  9746.180  0.500  0.321223  100.962165  73.223948  29.567293
  9749.875  9749.850  0.500  0.320462  100.869441  73.212426  29.586477
  9753.549  9753.540  0.500  0.319629  100.788321  73.214478  29.615594
  9757.276  9757.250  0.500  0.318825  100.702584  73.211032  29.634168
  9760.992  9760.980  0.500  0.317936  100.617095  73.213980  29.659009
  9764.745  9764.720  0.500  0.317061  100.529759  73.214431  29.687133
  9768.505  9768.490  0.500  0.316174  100.432024  73.208147  29.707909
  9772.305  9772.280  0.500  0.315338  100.187216  73.090811  29.687079
  9776.096  9776.080  0.500  0.314433  100.295933  73.236381  29.773400
  9779.926  9779.910  0.500  0.313514  100.163005  73.206573  29.785700
  9783.756  9783.750  0.500  0.312613  98.589176  72.121233  29.372809
  9787.639  9787.610  0.500  0.311715  100.043309  73.250738  29.861252
  9791.512  9791.490  0.500  0.310801  99.046977  72.587522  29.616856
  9795.413  9795.390  0.500  0.309945  99.929557  73.297064  29.935976
  9799.326  9799.310  0.500  0.309268  99.794763  73.247739  29.944905
  9803.271  9803.250  0.500  0.308288  98.803604  72.591358  29.705782
  9807.223  9807.210  0.500  0.307319  99.677383  73.304311  30.023040
  9811.208  9811.180  0.500  0.306502  99.583881  73.295458  30.051228
  9815.192  9815.180  0.500  0.305632  99.458069  73.266565  30.066643
  9819.208  9819.190  0.500  0.304564  99.371062  73.280643  30.095275
  9823.257  9823.230  0.500  0.303720  99.273410  73.270486  30.119181
  9827.297  9827.280  0.500  0.302872  99.074646  73.185806  30.114237
  9831.369  9831.350  0.500  0.301975  99.100620  73.270685  30.175520
  9835.462  9835.440  0.500  0.300981  98.489218  72.891042  30.044609
  9839.570  9839.550  0.500  0.300148  98.933369  73.280781  30.226653
  9843.695  9843.680  0.500  0.299288  98.273634  72.854764  30.078114
  9847.853  9847.830  0.500  0.298325  98.744688  73.274528  30.276833
  9852.018  9851.990  0.500  0.297423  98.675012  73.288880  30.309357
  9856.196  9856.180  0.500  0.296652  98.593641  73.284942  30.336525
  9860.406  9860.380  0.500  0.295704  98.498788  73.283829  30.362401
  9864.629  9864.610  0.500  0.294815  98.404118  73.278549  30.391781
  9868.884  9868.850  0.500  0.293845  98.310733  73.280024  30.420254
  9873.135  9873.110  0.500  0.292928  98.223454  73.282150  30.452959
  9877.403  9877.390  0.500  0.292041  98.117433  73.268020  30.478611
  9881.729  9881.690  0.500  0.291003  95.780154  71.596964  29.812355
  9886.029  9886.010  0.500  0.290058  97.875088  73.232147  30.522699
  9890.376  9890.350  0.500  0.289116  97.819131  73.259229  30.567015
  9894.735  9894.710  0.500  0.288162  97.725578  73.258988  30.598465
  9899.115  9899.090  0.500  0.287259  97.630586  73.253937  30.623973
  9903.511  9903.480  0.500  0.286223  97.528020  73.252833  30.651832
  9907.916  9907.900  0.500  0.285340  97.431951  73.245341  30.677817
  9912.363  9912.330  0.500  0.284333  97.337338  73.247896  30.709108
  9916.805  9916.780  0.500  0.283303  97.237727  73.248351  30.737337
  9921.264  9921.250  0.500  0.282408  97.132594  73.234697  30.762576
  9925.775  9925.740  0.500  0.281435  97.017115  73.218795  30.780638
  9930.272  9930.250  0.500  0.280551  96.724153  73.062293  30.746704
  9934.804  9934.780  0.500  0.279514  96.911455  73.279723  30.863737
  9939.352  9939.330  0.500  0.278614  96.811201  73.269815  30.888953
