# XDI/1.0 BlueSky/1.10.0 BMM/2023-1.0-py310-tiled
# Beamline.name: BMM (06BM) -- Beamline for Materials Measurement (NIST)
# Beamline.xray_source: NSLS-II three-pole wiggler
# Beamline.collimation: paraboloid mirror, 5 nm Rh on 30 nm Pt
# Beamline.focusing: not in use
# Beamline.harmonic_rejection: flat mirror, Pt stripe, pitch = 7.0 mrad relative to beam
# Beamline.software: Bluesky 1.10.0, Ophyd 1.7.0, DataBroker 2.0.0b13, Python 3.10.8, 2023-1.0-py310-tiled
# Detector.I0: 10 cm N2
# Detector.I1: 25 cm N2
# Detector.I2: 25 cm N2
# Element.symbol: Ho
# Element.edge: L3
# Element.reference: Ho
# Element.reference_material: Ho2O3
# Facility.name: NSLS-II
# Facility.energy: 3.0
# Facility.current: 399.7
# Facility.mode: top-off
# Facility.GUP: 301027
# Facility.SAF: 310583
# Facility.cycle: 2023-2
# Mono.name: Si(111)
# Mono.d_spacing: 3.1351860
# Mono.encoder_resolution: 0.0000050 deg/ct
# Mono.angle_offset: 16.0754326 deg
# Mono.scan_mode: pseudo channel cut
# Mono.scan_type: step
# Mono.direction: forward in energy
# Sample.name: Ho2O3
# Sample.prep: PEG pellet
# Sample.x: 109.138 mm
# Sample.y: 153.150 mm
# Sample.SDD_position: 205.000 mm
# Scan.experimenters: Bruce Ravel
# Scan.edge_energy: 8071.1
# Scan.start_time: 2023-05-28T14:45:16
# Scan.end_time: 2023-05-28T14:53:09
# Scan.transient_id: 78770
# Scan.uid: 7e36ac9f-ec01-4463-a4dc-fbf08421a0ee
# Scan.plot_hint: ln(It/Ir)  --  ln($6/$7)
# Column.1: energy eV
# Column.2: requested_energy eV
# Column.3: measurement_time seconds
# Column.4: xmu 
# Column.5: I0 nA
# Column.6: It nA
# Column.7: Ir nA
# ///////////
# sample courtesy Martin Stennett, University of Sheffield
# -----------
# energy  requested_energy  measurement_time  xmu  I0  It  Ir
  7871.098  7871.100  0.500  1.341223  139.990641  165.538863  43.292640
  7881.113  7881.100  0.500  1.336158  139.881372  165.709399  43.557308
  7891.125  7891.100  0.500  1.331278  139.790144  165.925112  43.827391
  7901.165  7901.100  0.500  1.326365  139.495745  165.886248  44.032902
  7911.176  7911.100  0.500  1.321387  139.512801  166.242224  44.347619
  7921.152  7921.100  0.500  1.316515  139.423458  166.436169  44.616186
  7931.108  7931.100  0.500  1.311917  139.231580  166.512215  44.842308
  7941.111  7941.100  0.500  1.307299  139.325718  166.946888  45.167438
  7951.130  7951.100  0.500  1.302356  138.000588  165.663303  45.042256
  7961.183  7961.100  0.500  1.297617  138.916650  167.051923  45.635560
  7971.113  7971.100  0.500  1.292981  138.820727  167.245648  45.900811
  7981.107  7981.100  0.500  1.288246  137.625943  166.118945  45.807985
  7991.118  7991.100  0.500  1.283510  138.541078  167.517809  46.412985
  8001.120  8001.100  0.500  1.278927  138.390034  167.658880  46.665460
  8011.106  8011.100  0.500  1.274563  138.269067  167.801194  46.909337
  8021.116  8021.100  0.500  1.270427  138.118386  167.918180  47.136617
  8031.118  8031.100  0.500  1.266460  137.984307  168.066476  47.365739
  8041.118  8041.100  0.500  1.263244  137.810693  168.150598  47.542094
  8043.102  8043.100  0.500  1.262750  137.766010  168.161573  47.568704
  8045.095  8045.100  0.500  1.262714  137.741217  168.205024  47.582699
  8047.097  8047.100  0.500  1.262532  137.706078  168.194262  47.588329
  8049.090  8049.100  0.500  1.262509  137.652720  168.191631  47.588666
  8051.092  8051.100  0.500  1.262731  137.597736  168.204332  47.581724
  8053.089  8053.100  0.500  1.263145  137.534547  168.167690  47.551661
  8055.098  8055.100  0.500  1.264054  137.436379  168.109397  47.491980
  8057.094  8057.100  0.500  1.265516  137.099556  167.765058  47.325486
  8059.092  8059.100  0.500  1.267892  132.148641  161.753127  45.521232
  8061.099  8061.100  0.500  1.271803  137.534797  168.415000  47.211040
  8061.382  8061.400  0.500  1.272497  137.555008  168.452718  47.188853
  8061.674  8061.700  0.500  1.273303  137.547910  168.413023  47.139763
  8061.977  8062.000  0.500  1.274283  137.736161  168.683882  47.169332
  8062.272  8062.300  0.500  1.275169  137.992534  169.022600  47.222178
  8062.578  8062.600  0.500  1.276309  137.983389  169.017792  47.167023
  8062.873  8062.900  0.500  1.277499  137.994594  169.031706  47.114800
  8063.179  8063.200  0.500  1.278823  137.988553  169.029966  47.051982
  8063.477  8063.500  0.500  1.280191  137.991810  169.028673  46.987308
  8063.774  8063.800  0.500  1.281740  137.982335  169.039518  46.917575
  8064.080  8064.100  0.500  1.283441  137.979084  169.053674  46.841759
  8064.378  8064.400  0.500  1.285325  137.976732  169.058681  46.754962
  8064.679  8064.700  0.500  1.287628  137.935021  169.037779  46.641681
  8064.982  8065.000  0.500  1.290055  137.938711  169.045755  46.530797
  8065.285  8065.300  0.500  1.292694  137.945053  169.004321  46.396798
  8065.594  8065.600  0.500  1.295617  137.913598  168.970247  46.252050
  8065.889  8065.900  0.500  1.298578  137.909760  168.993078  46.121505
  8066.184  8066.200  0.500  1.301519  137.919230  169.003965  45.989051
  8066.493  8066.500  0.500  1.304752  137.902641  169.003170  45.840387
  8066.789  8066.800  0.500  1.307629  137.875217  168.951648  45.694766
  8067.087  8067.100  0.500  1.310734  137.859092  168.930340  45.547345
  8067.393  8067.400  0.500  1.313818  137.814992  168.918769  45.404001
  8067.682  8067.700  0.500  1.316927  137.792531  168.885815  45.254231
  8067.994  8068.000  0.500  1.320514  137.763483  168.861600  45.085721
  8068.295  8068.300  0.500  1.324296  137.715120  168.831316  44.907467
  8068.590  8068.600  0.500  1.328432  137.621790  168.734560  44.696470
  8068.883  8068.900  0.500  1.333093  137.486830  168.575529  44.446714
  8069.187  8069.200  0.500  1.338408  137.246067  168.309313  44.141287
  8069.488  8069.500  0.500  1.344400  136.738425  167.692058  43.716649
  8069.791  8069.800  0.500  1.351250  135.378579  166.029958  42.987882
  8070.089  8070.100  0.500  1.359242  133.242366  163.420237  41.975352
  8070.396  8070.400  0.500  1.369351  131.882157  161.751823  41.128947
  8070.700  8070.700  0.500  1.381183  132.553679  162.582766  40.853977
  8070.998  8071.000  0.500  1.394575  134.335467  164.770716  40.853005
  8071.296  8071.300  0.500  1.409199  136.265546  167.128435  40.835963
  8071.597  8071.600  0.500  1.426045  137.595654  168.800200  40.555481
  8071.901  8071.900  0.500  1.445230  137.999389  169.307257  39.904353
  8072.197  8072.200  0.500  1.466693  138.066447  169.360939  39.069370
  8072.489  8072.500  0.500  1.490483  138.075554  169.439489  38.168574
  8072.793  8072.800  0.500  1.517227  138.082813  169.454828  37.164701
  8073.092  8073.100  0.500  1.545898  138.075859  169.452127  36.113701
  8073.396  8073.400  0.500  1.576434  138.051882  169.415966  35.020147
  8073.694  8073.700  0.500  1.607136  138.037123  169.383141  33.954710
  8074.001  8074.000  0.500  1.636935  138.057403  169.432077  32.967334
  8074.297  8074.300  0.500  1.664259  138.027950  169.393364  32.071385
  8074.601  8074.600  0.500  1.688805  138.011312  169.349568  31.285666
  8074.899  8074.900  0.500  1.709872  137.977666  169.343826  30.632421
  8075.195  8075.200  0.500  1.728175  137.979976  169.362456  30.080164
  8075.497  8075.500  0.500  1.743472  137.947725  169.358341  29.622816
  8075.795  8075.800  0.500  1.756192  137.915088  169.329492  29.243419
  8076.097  8076.100  0.500  1.766378  137.910759  169.322407  28.945832
  8076.387  8076.400  0.500  1.774518  137.870760  169.287069  28.705198
  8076.694  8076.700  0.500  1.781042  137.845140  169.258994  28.513793
  8076.993  8077.000  0.500  1.785374  137.798787  169.215999  28.383321
  8077.297  8077.300  0.500  1.787782  137.736617  169.109498  28.297257
  8077.598  8077.600  0.500  1.787537  137.678162  169.021803  28.289496
  8077.903  8077.900  0.500  1.784289  137.562147  168.889468  28.359325
  8078.204  8078.200  0.500  1.777913  137.414203  168.724011  28.512752
  8078.506  8078.500  0.500  1.768310  137.060463  168.288440  28.713558
  8078.799  8078.800  0.500  1.755738  136.262489  167.325863  28.910511
  8079.106  8079.100  0.500  1.740656  134.478376  165.159986  28.969923
  8079.402  8079.400  0.500  1.722946  132.506352  162.743690  29.056166
  8079.696  8079.700  0.500  1.704487  131.930932  162.068189  29.474647
  8079.992  8080.000  0.500  1.684862  132.915144  163.292832  30.285933
  8080.294  8080.300  0.500  1.665469  134.722748  165.480359  31.292652
  8080.598  8080.600  0.500  1.645954  136.602503  167.815044  32.359515
  8080.894  8080.900  0.500  1.627094  137.645528  169.123402  33.232696
  8081.205  8081.200  0.500  1.608374  137.963471  169.516159  33.939310
  8081.504  8081.500  0.500  1.591027  137.990588  169.536689  34.537381
  8081.808  8081.800  0.500  1.574809  137.997125  169.548730  35.104561
  8082.099  8082.100  0.500  1.560715  137.981627  169.535406  35.600030
  8082.401  8082.400  0.500  1.547747  137.986576  169.587818  36.075843
  8082.700  8082.700  0.500  1.536601  137.965975  169.558157  36.473843
  8083.005  8083.000  0.500  1.526589  137.963714  169.542694  36.837474
  8083.293  8083.300  0.500  1.517980  137.923956  169.527122  37.152553
  8083.592  8083.600  0.500  1.510186  137.934435  169.520870  37.441874
  8083.891  8083.900  0.500  1.503257  137.912381  169.500087  37.697617
  8084.190  8084.200  0.500  1.497111  137.894890  169.503013  37.930655
  8084.492  8084.500  0.500  1.491651  137.891554  169.505983  38.138987
  8084.794  8084.800  0.500  1.486630  137.876655  169.474685  38.323913
  8085.102  8085.100  0.500  1.482169  137.874559  169.489818  38.498665
  8085.404  8085.400  0.500  1.478190  137.854139  169.460561  38.645500
  8085.704  8085.700  0.500  1.474707  137.834700  169.485678  38.786074
  8086.003  8086.000  0.500  1.471562  137.813945  169.458094  38.901907
  8086.305  8086.300  0.500  1.468531  137.772501  169.388125  39.003885
  8086.607  8086.600  0.500  1.465820  137.772319  169.432732  39.120076
  8086.901  8086.900  0.500  1.463173  137.764341  169.452499  39.228334
  8087.195  8087.200  0.500  1.460934  137.730662  169.411187  39.306694
  8087.495  8087.500  0.500  1.458894  137.725076  169.426165  39.390449
  8087.794  8087.800  0.500  1.457067  137.694026  169.392303  39.454605
  8088.094  8088.100  0.500  1.455484  137.694792  169.387857  39.516057
  8088.396  8088.400  0.500  1.454117  137.657216  169.359114  39.563396
  8088.704  8088.700  0.500  1.452954  137.622240  169.358179  39.609227
  8089.004  8089.000  0.500  1.451949  137.591113  169.292152  39.633575
  8089.298  8089.300  0.500  1.451214  137.542866  169.251508  39.653211
  8089.600  8089.600  0.500  1.450566  137.492052  169.184979  39.663304
  8089.894  8089.900  0.500  1.450229  137.397535  169.080250  39.652123
  8090.208  8090.200  0.500  1.449960  137.286334  168.944170  39.630868
  8090.499  8090.500  0.500  1.449942  137.081139  168.666657  39.566484
  8090.799  8090.800  0.500  1.450054  136.679982  168.197497  39.452011
  8091.099  8091.100  0.500  1.450326  135.584423  166.875488  39.131284
  8091.401  8091.400  0.500  1.450667  133.268749  164.022022  38.449043
  8091.696  8091.700  0.500  1.451311  131.667422  162.079188  37.969145
  8091.995  8092.000  0.500  1.452028  131.911439  162.393559  38.015545
  8092.304  8092.300  0.500  1.452768  133.351032  164.134312  38.394626
  8092.604  8092.600  0.500  1.453469  135.303526  166.576106  38.938508
  8092.901  8092.900  0.500  1.454023  136.917643  168.553749  39.378950
  8093.203  8093.200  0.500  1.454419  137.584092  169.394116  39.559607
  8093.506  8093.500  0.500  1.454757  137.710470  169.572192  39.587819
  8093.806  8093.800  0.500  1.455091  137.705331  169.582240  39.576966
  8094.098  8094.100  0.500  1.455160  137.734413  169.624795  39.584165
  8094.389  8094.400  0.500  1.455141  137.722509  169.618691  39.583488
  8094.689  8094.700  0.500  1.455037  137.711446  169.606425  39.584739
  8094.998  8095.000  0.500  1.454688  137.701799  169.588800  39.594422
  8095.290  8095.300  0.500  1.454355  137.687379  169.549552  39.598447
  8095.587  8095.600  0.500  1.453908  137.650175  169.542291  39.614486
  8095.893  8095.900  0.500  1.453266  137.652546  169.548960  39.641467
  8096.106  8096.100  0.500  1.452721  137.625105  169.533978  39.659556
  8097.161  8097.090  0.500  1.449810  137.604759  169.546224  39.778077
  8098.109  8098.090  0.500  1.447109  137.532932  169.509206  39.876929
  8099.165  8099.110  0.500  1.444576  137.514359  169.519944  39.980597
  8100.170  8100.160  0.500  1.443674  137.465150  169.491139  40.009903
  8101.203  8101.220  0.500  1.444637  137.436356  169.485484  39.970048
  8102.285  8102.300  0.500  1.447569  137.427144  169.503430  39.857242
  8103.387  8103.400  0.500  1.451653  137.405123  169.502410  39.694544
  8104.511  8104.520  0.500  1.456879  137.376353  169.500204  39.487144
  8105.655  8105.660  0.500  1.462221  137.355414  169.494535  39.275454
  8106.808  8106.810  0.500  1.468050  137.336047  169.467684  39.040989
  8107.987  8107.990  0.500  1.474661  137.295722  169.449302  38.779549
  8109.175  8109.180  0.500  1.481556  137.274727  169.453158  38.513950
  8110.394  8110.400  0.500  1.488378  137.256159  169.502986  38.263340
  8111.621  8111.630  0.500  1.493754  137.259616  169.583516  38.076286
  8112.880  8112.880  0.500  1.496728  137.230734  169.544773  37.954549
  8114.143  8114.150  0.500  1.496928  137.184027  169.524764  37.942466
  8115.437  8115.440  0.500  1.494390  137.184901  169.559591  38.046694
  8116.753  8116.750  0.500  1.489814  137.158238  169.572680  38.224136
  8118.073  8118.080  0.500  1.484364  137.125217  169.571567  38.432774
  8119.425  8119.430  0.500  1.478392  137.096527  169.580004  38.664917
  8120.796  8120.800  0.500  1.472953  137.077291  169.604285  38.881373
  8122.174  8122.180  0.500  1.467991  137.062671  169.629623  39.080607
  8123.581  8123.590  0.500  1.463959  137.012655  169.608917  39.233703
  8125.002  8125.010  0.500  1.460579  136.992546  169.617287  39.368502
  8126.444  8126.450  0.500  1.457566  136.977856  169.638509  39.492241
  8127.917  8127.910  0.500  1.454473  136.949535  169.653696  39.618121
  8129.390  8129.390  0.500  1.451680  136.922120  169.654750  39.729182
  8130.890  8130.890  0.500  1.449367  136.885665  169.658583  39.822052
  8132.407  8132.410  0.500  1.447346  136.859811  169.655895  39.901986
  8133.951  8133.950  0.500  1.445616  136.815899  169.647355  39.969058
  8135.512  8135.510  0.500  1.443985  137.199171  170.173397  40.158434
  8137.076  8137.080  0.500  1.442445  137.223895  170.237132  40.235406
  8138.684  8138.680  0.500  1.441190  137.197638  170.257340  40.290702
  8140.292  8140.290  0.500  1.440309  137.169428  170.253642  40.325332
  8141.935  8141.930  0.500  1.439687  137.129188  170.231778  40.345247
  8143.581  8143.580  0.500  1.439511  137.097913  170.251576  40.357045
  8145.260  8145.250  0.500  1.439811  137.060628  170.246506  40.343766
  8146.941  8146.940  0.500  1.440642  137.027792  170.256183  40.312538
  8148.650  8148.650  0.500  1.441824  137.005453  170.285581  40.271875
  8150.384  8150.380  0.500  1.443367  136.980427  170.290074  40.210838
  8152.140  8152.130  0.500  1.444910  136.935074  170.295140  40.150026
  8153.893  8153.890  0.500  1.446292  136.908313  170.325189  40.101650
  8155.681  8155.680  0.500  1.447545  136.887112  170.354234  40.058275
  8157.476  8157.480  0.500  1.448347  136.839903  170.342521  40.023394
  8159.302  8159.310  0.500  1.448744  136.772957  170.321598  40.002584
  8161.150  8161.150  0.500  1.448726  136.748345  170.366237  40.013811
  8163.016  8163.010  0.500  1.448234  136.728280  170.363559  40.032868
  8164.902  8164.890  0.500  1.447401  136.684941  170.357143  40.064697
  8166.789  8166.790  0.500  1.446434  136.684110  170.429785  40.120575
  8168.718  8168.710  0.500  1.445509  136.645228  170.448047  40.161991
  8170.653  8170.650  0.500  1.444623  136.590461  170.407506  40.188053
  8172.620  8172.610  0.500  1.443793  136.556275  170.428048  40.226287
  8174.591  8174.580  0.500  1.442845  136.506209  170.384533  40.254153
  8176.592  8176.580  0.500  1.441700  136.479841  170.440208  40.313433
  8178.594  8178.590  0.500  1.440574  136.420998  170.434827  40.357576
  8180.622  8180.620  0.500  1.439383  136.366012  170.393585  40.395900
  8182.695  8182.680  0.500  1.438387  136.365684  170.461219  40.452181
  8184.754  8184.750  0.500  1.437414  136.310206  170.449447  40.488779
  8186.844  8186.840  0.500  1.436534  136.254354  170.455447  40.525850
  8188.971  8188.950  0.500  1.435665  136.246486  170.496226  40.570793
  8191.086  8191.080  0.500  1.434417  136.215447  170.519555  40.626985
  8193.227  8193.220  0.500  1.432717  136.150091  170.501876  40.691900
  8195.390  8195.390  0.500  1.430614  136.110932  170.522657  40.782562
  8197.591  8197.580  0.500  1.427889  136.074712  170.515237  40.892061
  8199.785  8199.780  0.500  1.425195  136.007213  170.510977  41.001347
  8202.014  8202.000  0.500  1.422383  135.981320  170.542079  41.124302
  8204.262  8204.250  0.500  1.419431  135.943619  170.541215  41.245666
  8206.515  8206.510  0.500  1.417073  135.907259  170.528119  41.339869
  8208.806  8208.790  0.500  1.415536  135.864909  170.552117  41.409289
  8211.096  8211.090  0.500  1.414879  135.809038  170.570761  41.441001
  8213.430  8213.410  0.500  1.414983  135.774541  170.601359  41.444143
  8215.762  8215.750  0.500  1.415206  135.726869  170.640913  41.444511
  8218.117  8218.100  0.500  1.415291  135.674746  170.565772  41.422728
  8220.478  8220.480  0.500  1.415209  135.644608  170.580270  41.429662
  8222.893  8222.870  0.500  1.415081  135.591295  170.601977  41.440223
  8225.298  8225.290  0.500  1.414981  135.534813  170.597184  41.443226
  8227.742  8227.720  0.500  1.415177  135.504008  170.666664  41.451986
  8230.179  8230.170  0.500  1.415643  135.457243  170.650128  41.428623
  8232.667  8232.650  0.500  1.416350  135.400365  170.660665  41.401908
  8235.150  8235.140  0.500  1.416742  135.348265  170.650747  41.383294
  8237.667  8237.650  0.500  1.416637  135.308772  170.676820  41.393940
  8240.183  8240.170  0.500  1.415822  135.252727  170.681511  41.428861
  8242.741  8242.720  0.500  1.414108  135.194257  170.713822  41.507771
  8245.298  8245.290  0.500  1.411695  135.122399  170.685568  41.601154
  8247.882  8247.870  0.500  1.408925  135.086988  170.682508  41.715806
  8250.489  8250.480  0.500  1.406156  135.035061  170.670726  41.828602
  8253.118  8253.100  0.500  1.404088  134.974982  170.655262  41.911380
  8255.763  8255.750  0.500  1.402298  134.936352  170.687719  41.994440
  8258.430  8258.410  0.500  1.400814  134.884783  170.673444  42.053315
  8261.111  8261.090  0.500  1.399640  134.840924  170.698228  42.108830
  8263.799  8263.790  0.500  1.398813  134.780118  170.717333  42.148397
  8266.528  8266.510  0.500  1.398098  134.693196  170.702551  42.174862
  8269.264  8269.250  0.500  1.397491  134.650259  170.720576  42.204946
  8272.019  8272.000  0.500  1.396726  134.605388  170.725577  42.238466
  8274.788  8274.780  0.500  1.395999  134.544032  170.739680  42.272672
  8277.592  8277.570  0.500  1.395219  134.469745  170.684647  42.292021
  8280.403  8280.390  0.500  1.394462  134.279520  170.546662  42.289834
  8283.239  8283.220  0.500  1.393415  134.310160  170.658161  42.361812
  8286.093  8286.070  0.500  1.391981  134.277638  170.676048  42.427071
  8288.966  8288.950  0.500  1.390082  134.210013  170.654935  42.502465
  8291.862  8291.840  0.500  1.387840  134.154968  170.663045  42.599888
  8294.760  8294.750  0.500  1.385731  134.110508  170.660582  42.689194
  8297.689  8297.670  0.500  1.383811  134.053102  170.700779  42.781312
  8300.629  8300.620  0.500  1.382017  133.974516  170.669210  42.850189
  8303.605  8303.590  0.500  1.380564  133.893238  170.630176  42.902684
  8306.597  8306.570  0.500  1.379373  133.843472  170.674590  42.964999
  8309.585  8309.580  0.500  1.378381  133.767193  170.664833  43.005200
  8312.626  8312.600  0.500  1.377583  133.695033  170.636210  43.032305
  8315.660  8315.650  0.500  1.376881  133.638712  170.678519  43.073189
  8318.727  8318.710  0.500  1.376148  133.538316  170.575080  43.078651
  8321.810  8321.790  0.500  1.375381  133.486675  170.611443  43.120878
  8324.914  8324.890  0.500  1.374517  133.457821  170.672674  43.173649
  8328.020  8328.010  0.500  1.373806  133.363133  170.650299  43.198687
  8331.170  8331.150  0.500  1.372927  133.298654  170.654149  43.237654
  8334.308  8334.300  0.500  1.371817  133.098586  170.481919  43.241989
  8337.495  8337.480  0.500  1.370556  132.984561  170.408811  43.278003
  8340.692  8340.670  0.500  1.369160  132.845533  170.315806  43.314803
  8343.908  8343.890  0.500  1.367678  132.710960  170.223276  43.355462
  8347.130  8347.120  0.500  1.366182  132.615016  170.180487  43.409452
  8350.385  8350.370  0.500  1.364551  132.394167  169.981054  43.429363
  8353.669  8353.650  0.500  1.362783  132.151669  169.767816  43.451655
  8356.953  8356.940  0.500  1.361018  132.066417  169.738114  43.520775
  8360.267  8360.250  0.500  1.359210  132.038679  169.789652  43.612768
  8363.592  8363.570  0.500  1.357223  131.970201  169.801116  43.702469
  8366.944  8366.920  0.500  1.355389  131.937826  169.838600  43.792364
  8370.311  8370.290  0.500  1.353818  131.907358  169.874131  43.870404
  8373.692  8373.670  0.500  1.352617  131.836058  169.869791  43.922010
  8377.098  8377.080  0.500  1.351303  131.771680  169.887843  43.984417
  8380.515  8380.500  0.500  1.350207  131.680193  169.812585  44.013142
  8383.972  8383.950  0.500  1.349043  131.626278  169.821343  44.066694
  8387.431  8387.410  0.500  1.347915  131.478806  169.715130  44.088811
  8390.918  8390.890  0.500  1.346620  131.385050  169.698334  44.141592
  8394.398  8394.390  0.500  1.345055  131.278497  169.654075  44.199183
  8397.921  8397.910  0.500  1.343441  131.227038  169.699254  44.282393
  8401.458  8401.450  0.500  1.341675  131.125527  169.670315  44.353084
  8405.005  8405.000  0.500  1.339896  131.032884  169.637756  44.423538
  8408.586  8408.580  0.500  1.338301  130.961494  169.596678  44.483650
  8412.190  8412.180  0.500  1.336703  130.849376  169.531530  44.537713
  8415.808  8415.790  0.500  1.335210  130.780079  169.539612  44.606370
  8419.434  8419.420  0.500  1.333774  130.674593  169.505633  44.661496
  8423.088  8423.080  0.500  1.332327  130.614120  169.525743  44.731491
  8426.763  8426.750  0.500  1.331004  130.493847  169.462367  44.773960
  8430.457  8430.440  0.500  1.329486  130.452729  169.509308  44.854417
  8434.161  8434.150  0.500  1.327818  130.367085  169.483904  44.922572
  8437.895  8437.880  0.500  1.326177  130.244302  169.412711  44.977430
  8441.633  8441.620  0.500  1.324657  130.209432  169.481490  45.064119
  8445.407  8445.390  0.500  1.323232  130.109768  169.420786  45.112237
  8449.189  8449.180  0.500  1.321894  129.988874  169.364798  45.157690
  8452.992  8452.980  0.500  1.320558  129.887383  169.321574  45.206527
  8456.823  8456.810  0.500  1.319283  129.792364  169.298553  45.258040
  8460.667  8460.650  0.500  1.317812  129.722748  169.286994  45.321595
  8464.524  8464.510  0.500  1.316299  129.622648  169.278023  45.387819
  8468.403  8468.390  0.500  1.314711  129.523989  169.255137  45.453802
  8472.304  8472.290  0.500  1.313007  129.441250  169.240325  45.527317
  8476.215  8476.210  0.500  1.311273  129.350225  169.166516  45.586441
  8480.157  8480.150  0.500  1.309493  129.233569  169.095297  45.648446
  8484.122  8484.110  0.500  1.307751  129.155797  169.112413  45.732652
  8488.094  8488.080  0.500  1.305863  129.016100  169.046757  45.801301
  8492.094  8492.080  0.500  1.304080  128.939368  169.038941  45.880897
  8496.101  8496.090  0.500  1.302280  128.859000  169.017507  45.957739
  8500.153  8500.130  0.500  1.300377  128.747500  168.983463  46.036006
  8504.199  8504.180  0.500  1.298613  128.640107  168.926441  46.101710
  8508.265  8508.250  0.500  1.296604  128.492650  168.807976  46.162042
  8512.347  8512.340  0.500  1.294796  128.407467  168.805681  46.244954
  8516.467  8516.450  0.500  1.292985  128.275044  168.729831  46.307950
  8520.594  8520.580  0.500  1.291427  128.143262  168.653555  46.359189
  8524.742  8524.730  0.500  1.290040  127.907157  168.436557  46.363831
  8528.909  8528.890  0.500  1.288651  126.792542  167.083934  46.055391
  8533.093  8533.080  0.500  1.287451  125.405251  165.349846  45.632132
  8537.299  8537.280  0.500  1.285990  127.857746  168.698534  46.624353
  8541.526  8541.510  0.500  1.284489  127.771422  168.681064  46.689567
  8545.763  8545.750  0.500  1.282788  127.619821  168.574576  46.739544
  8550.033  8550.010  0.500  1.280966  127.534213  168.546169  46.816878
  8554.317  8554.290  0.500  1.279171  127.465784  168.576508  46.909407
  8558.611  8558.590  0.500  1.277378  127.339626  168.522246  46.978481
  8562.932  8562.910  0.500  1.275464  127.230603  168.465502  47.052656
  8567.270  8567.250  0.500  1.273563  127.119205  168.419041  47.129176
  8571.644  8571.610  0.500  1.271656  126.982056  168.328682  47.193803
  8576.010  8575.990  0.500  1.269800  126.827387  168.191166  47.242864
  8580.396  8580.380  0.500  1.268025  126.679114  168.135173  47.311009
  8584.825  8584.800  0.500  1.266067  126.500411  167.981015  47.360264
  8589.255  8589.230  0.500  1.264080  126.203174  167.682122  47.370021
  8593.703  8593.680  0.500  1.262359  109.771199  145.964659  41.305920
  8598.172  8598.150  0.500  1.260390  125.678126  167.210492  47.411458
  8602.664  8602.640  0.500  1.258641  125.689724  167.314321  47.523923
  8607.174  8607.150  0.500  1.256998  125.472718  167.108080  47.543383
  8611.695  8611.680  0.500  1.255509  124.787122  166.286020  47.380000
  8616.243  8616.230  0.500  1.253945  120.896710  161.205632  46.004328
  8620.809  8620.800  0.500  1.252610  126.522446  168.808160  48.238301
  8625.399  8625.380  0.500  1.251173  126.485079  168.876342  48.327137
  8630.014  8629.990  0.500  1.249377  126.102784  168.453184  48.292710
  8634.630  8634.610  0.500  1.247435  125.975243  168.378802  48.365215
  8639.287  8639.260  0.500  1.245433  125.761429  168.194970  48.409254
  8643.942  8643.920  0.500  1.243241  109.905465  147.072127  42.422652
  8648.619  8648.600  0.500  1.241073  125.413917  167.945340  48.548612
  8653.313  8653.300  0.500  1.238851  125.497520  168.166546  48.720695
  8658.039  8658.020  0.500  1.236738  125.385659  168.114231  48.808583
  8662.783  8662.760  0.500  1.234690  125.249687  168.046848  48.889026
  8667.539  8667.510  0.500  1.232741  125.153873  168.012503  48.974390
  8672.313  8672.290  0.500  1.230931  125.034487  167.975585  49.052318
  8677.105  8677.090  0.500  1.229039  124.879593  167.902655  49.123904
  8681.919  8681.900  0.500  1.227282  124.717274  167.768236  49.170886
  8686.742  8686.730  0.500  1.225609  124.601018  167.717530  49.238310
  8691.609  8691.590  0.500  1.224015  124.406757  167.574690  49.274866
  8696.482  8696.460  0.500  1.222427  124.232825  167.429961  49.310551
  8701.379  8701.350  0.500  1.220753  123.954224  167.183797  49.320527
  8706.286  8706.260  0.500  1.218985  121.521232  163.984777  48.462403
  8711.215  8711.190  0.500  1.217368  123.820707  167.200435  49.492705
  8716.156  8716.130  0.500  1.215574  123.941149  167.458619  49.658139
  8721.126  8721.100  0.500  1.213700  123.796440  167.373411  49.725975
  8726.105  8726.090  0.500  1.211805  123.633344  167.274855  49.790931
  8731.106  8731.090  0.500  1.209693  123.464732  167.132055  49.853604
  8736.133  8736.120  0.500  1.207447  123.346725  167.080785  49.950393
  8741.178  8741.160  0.500  1.205210  123.211460  167.027304  50.046225
  8746.243  8746.220  0.500  1.202982  123.053094  166.898760  50.119279
  8751.321  8751.300  0.500  1.200919  122.903604  166.791480  50.190457
  8756.417  8756.400  0.500  1.198903  122.783114  166.772968  50.286172
  8761.543  8761.520  0.500  1.196871  122.640313  166.687728  50.362740
  8766.679  8766.660  0.500  1.194925  122.478738  166.576221  50.427058
  8771.847  8771.820  0.500  1.192985  122.363555  166.525317  50.509544
  8777.028  8777.000  0.500  1.191074  122.209533  166.439906  50.580221
  8782.238  8782.190  0.500  1.189245  122.039961  166.306155  50.632075
  8787.439  8787.410  0.500  1.187438  121.887093  166.182760  50.685999
  8792.652  8792.640  0.500  1.185692  121.715544  166.027603  50.727206
  8797.898  8797.890  0.500  1.183945  121.609385  166.025307  50.815186
  8803.171  8803.160  0.500  1.182196  121.457500  165.930444  50.875044
  8808.463  8808.450  0.500  1.180282  121.276114  165.796237  50.931285
  8813.775  8813.760  0.500  1.178248  121.129754  165.684603  51.000630
  8819.108  8819.090  0.500  1.176055  120.968918  165.605725  51.088251
  8824.463  8824.440  0.500  1.173889  120.817433  165.490479  51.163390
  8829.826  8829.810  0.500  1.171661  120.623787  165.310331  51.221726
  8835.205  8835.190  0.500  1.169549  120.484594  165.249168  51.310995
  8840.618  8840.600  0.500  1.167398  120.308009  165.107900  51.377549
  8846.030  8846.020  0.500  1.165317  120.200844  165.062979  51.470540
  8851.480  8851.470  0.500  1.163238  120.042392  164.958247  51.544935
  8856.951  8856.930  0.500  1.161063  119.875279  164.819922  51.613887
  8862.438  8862.410  0.500  1.158972  119.730458  164.721116  51.690918
  8867.953  8867.910  0.500  1.157040  119.576684  164.623624  51.760214
  8873.458  8873.430  0.500  1.155159  119.392056  164.477877  51.811754
  8879.003  8878.970  0.500  1.153359  119.235252  164.389629  51.877248
  8884.577  8884.520  0.500  1.151619  119.068076  164.275155  51.931423
  8890.130  8890.100  0.500  1.149904  118.926608  164.181918  51.991025
  8895.731  8895.700  0.500  1.148473  118.732502  164.023967  52.015364
