# XDI/1.0 BlueSky/1.10.0 BMM/2023-1.0-py310-tiled
# Beamline.name: BMM (06BM) -- Beamline for Materials Measurement (NIST)
# Beamline.xray_source: NSLS-II three-pole wiggler
# Beamline.collimation: paraboloid mirror, 5 nm Rh on 30 nm Pt
# Beamline.focusing: not in use
# Beamline.harmonic_rejection: flat mirror, Pt stripe, pitch = 7.0 mrad relative to beam
# Beamline.software: Bluesky 1.10.0, Ophyd 1.7.0, DataBroker 2.0.0b13, Python 3.10.8, 2023-1.0-py310-tiled
# Detector.I0: 10 cm N2
# Detector.I1: 25 cm N2
# Detector.I2: 25 cm N2
# Element.symbol: Ho
# Element.edge: L1
# Element.reference: Ho
# Element.reference_material: Ho2O3
# Facility.name: NSLS-II
# Facility.energy: 3.0
# Facility.current: 400.3
# Facility.mode: top-off
# Facility.GUP: 301027
# Facility.SAF: 310583
# Facility.cycle: 2023-2
# Mono.name: Si(111)
# Mono.d_spacing: 3.1351860
# Mono.encoder_resolution: 0.0000050 deg/ct
# Mono.angle_offset: 16.0754326 deg
# Mono.scan_mode: pseudo channel cut
# Mono.scan_type: step
# Mono.direction: forward in energy
# Sample.name: Ho2O3
# Sample.prep: PEG pellet
# Sample.x: 109.138 mm
# Sample.y: 153.150 mm
# Sample.SDD_position: 205.000 mm
# Scan.experimenters: Bruce Ravel
# Scan.edge_energy: 9394.2
# Scan.start_time: 2023-05-28T16:33:09
# Scan.end_time: 2023-05-28T16:41:12
# Scan.transient_id: 78840
# Scan.uid: e87cc0de-36a7-4f5a-bb9b-7a62903ff800
# Scan.plot_hint: ln(It/Ir)  --  ln($6/$7)
# Column.1: energy eV
# Column.2: requested_energy eV
# Column.3: measurement_time seconds
# Column.4: xmu 
# Column.5: I0 nA
# Column.6: It nA
# Column.7: Ir nA
# ///////////
# sample courtesy Martin Stennett, University of Sheffield
# -----------
# energy  requested_energy  measurement_time  xmu  I0  It  Ir
  9194.213  9194.200  0.500  1.146384  112.772986  161.075931  51.187317
  9204.233  9204.200  0.500  1.142759  112.536625  160.918054  51.322859
  9214.254  9214.200  0.500  1.138943  112.360637  160.838066  51.493452
  9224.201  9224.200  0.500  1.136086  112.177176  160.726096  51.604872
  9234.207  9234.200  0.500  1.133466  112.005343  160.624756  51.707587
  9244.210  9244.200  0.500  1.130361  111.843495  160.585473  51.855704
  9254.220  9254.200  0.500  1.127073  111.630986  160.439211  51.979111
  9264.222  9264.200  0.500  1.124032  111.439591  160.323849  52.099958
  9274.262  9274.200  0.500  1.121207  111.316523  160.298998  52.239216
  9284.246  9284.200  0.500  1.118124  111.115136  160.180431  52.361773
  9294.248  9294.200  0.500  1.115281  110.749357  159.800241  52.386217
  9304.257  9304.200  0.500  1.112615  110.834734  160.084090  52.619361
  9314.237  9314.200  0.500  1.109713  110.669567  159.974180  52.736037
  9324.249  9324.200  0.500  1.106631  109.815170  158.914932  52.548578
  9334.245  9334.200  0.500  1.103508  110.281594  159.763541  52.994416
  9344.238  9344.200  0.500  1.100485  110.114896  159.668612  53.123271
  9354.226  9354.200  0.500  1.097493  109.921008  159.529121  53.235907
  9364.213  9364.200  0.500  1.094709  109.788202  159.488210  53.370656
  9366.188  9366.200  0.500  1.094180  109.749815  159.451653  53.386640
  9368.183  9368.200  0.500  1.093744  109.673657  159.394895  53.390916
  9370.190  9370.200  0.500  1.093364  109.637533  159.385513  53.408091
  9372.182  9372.200  0.500  1.092913  109.581713  159.296604  53.402351
  9374.187  9374.200  0.500  1.092462  109.527044  159.241718  53.408052
  9376.182  9376.200  0.500  1.092108  109.552670  159.306905  53.448808
  9378.185  9378.200  0.500  1.091725  109.492941  159.270638  53.457143
  9380.189  9380.200  0.500  1.091491  109.432176  159.222855  53.453592
  9382.186  9382.200  0.500  1.091202  109.405262  159.210470  53.464904
  9384.188  9384.200  0.500  1.090927  109.366260  159.172616  53.466868
  9384.469  9384.500  0.500  1.090881  109.352605  159.153788  53.463004
  9384.765  9384.800  0.500  1.090814  109.388076  159.230024  53.492176
  9385.065  9385.100  0.500  1.090837  109.325161  159.126831  53.456322
  9385.369  9385.400  0.500  1.090772  109.376114  159.178468  53.477109
  9385.670  9385.700  0.500  1.090834  109.326785  159.148471  53.463734
  9385.974  9386.000  0.500  1.090761  109.344521  159.187030  53.480571
  9386.278  9386.300  0.500  1.090773  109.346920  159.198482  53.483782
  9386.578  9386.600  0.500  1.090678  109.300782  159.136776  53.468166
  9386.878  9386.900  0.500  1.090734  109.283122  159.109116  53.455852
  9387.179  9387.200  0.500  1.090723  109.270977  159.086326  53.448780
  9387.487  9387.500  0.500  1.090672  109.264825  159.075677  53.447942
  9387.783  9387.800  0.500  1.090678  109.276757  159.106365  53.457915
  9388.091  9388.100  0.500  1.090659  109.295175  159.136114  53.468945
  9388.380  9388.400  0.500  1.090705  109.259508  159.099384  53.454145
  9388.692  9388.700  0.500  1.090798  109.256182  159.081981  53.443301
  9388.985  9389.000  0.500  1.090663  109.216807  159.036691  53.435322
  9389.285  9389.300  0.500  1.090738  109.215814  159.019212  53.425461
  9389.582  9389.600  0.500  1.090741  109.222888  159.034208  53.430321
  9389.890  9389.900  0.500  1.090813  109.223943  159.046188  53.430520
  9390.191  9390.200  0.500  1.090835  109.202461  159.023061  53.421531
  9390.484  9390.500  0.500  1.090841  109.183878  159.010845  53.417140
  9390.792  9390.800  0.500  1.090832  109.196924  159.022645  53.421594
  9391.077  9391.100  0.500  1.090902  109.179492  159.015522  53.415447
  9391.389  9391.400  0.500  1.090954  109.167253  159.015217  53.412560
  9391.678  9391.700  0.500  1.090933  109.165952  159.008927  53.411565
  9391.983  9392.000  0.500  1.090991  109.192236  159.053720  53.423503
  9392.284  9392.300  0.500  1.091082  109.134781  158.971884  53.391162
  9392.592  9392.600  0.500  1.091226  109.132023  158.969716  53.382746
  9392.885  9392.900  0.500  1.091289  109.128463  158.951493  53.373296
  9393.193  9393.200  0.500  1.091383  109.127874  158.962778  53.372033
  9393.490  9393.500  0.500  1.091499  109.103743  158.941754  53.358776
  9393.802  9393.800  0.500  1.091744  109.104525  158.949539  53.348334
  9394.092  9394.100  0.500  1.091893  109.078719  158.919434  53.330290
  9394.389  9394.400  0.500  1.092100  109.106740  158.958494  53.332347
  9394.701  9394.700  0.500  1.092413  109.060764  158.910852  53.299665
  9395.021  9395.000  0.500  1.092625  109.081765  158.918158  53.290838
  9395.329  9395.300  0.500  1.092988  109.075569  158.928232  53.274861
  9395.611  9395.600  0.500  1.093392  109.087488  158.962417  53.264788
  9395.901  9395.900  0.500  1.093809  109.055273  158.892240  53.219084
  9396.251  9396.200  0.500  1.094466  109.035197  158.847702  53.169258
  9396.461  9396.500  0.500  1.094867  108.994177  158.822931  53.139611
  9396.769  9396.800  0.500  1.095466  108.985610  158.821299  53.107248
  9397.082  9397.100  0.500  1.096143  109.364935  159.379097  53.257708
  9397.425  9397.400  0.500  1.096911  109.374635  159.377627  53.216340
  9397.733  9397.700  0.500  1.097735  109.346743  159.351841  53.163903
  9398.027  9398.000  0.500  1.098311  109.361511  159.353838  53.133961
  9398.324  9398.300  0.500  1.099059  109.365621  159.364340  53.097732
  9398.625  9398.600  0.500  1.099711  109.355971  159.368202  53.064423
  9398.922  9398.900  0.500  1.100370  109.325488  159.335433  53.018552
  9399.223  9399.200  0.500  1.100945  109.335974  159.344627  52.991123
  9399.513  9399.500  0.500  1.101592  109.329905  159.341017  52.955654
  9399.822  9399.800  0.500  1.102200  109.300631  159.300175  52.909869
  9400.108  9400.100  0.500  1.102840  109.322261  159.332474  52.886767
  9400.409  9400.400  0.500  1.103504  109.328954  159.346073  52.856190
  9400.706  9400.700  0.500  1.104071  109.282469  159.288281  52.807033
  9401.008  9401.000  0.500  1.104694  109.272777  159.282980  52.772391
  9401.305  9401.300  0.500  1.105438  109.272259  159.313911  52.743378
  9401.599  9401.600  0.500  1.106036  109.241482  159.254488  52.692198
  9401.896  9401.900  0.500  1.106698  109.247851  159.252620  52.656716
  9402.194  9402.200  0.500  1.107354  109.251219  159.265913  52.626559
  9402.514  9402.500  0.500  1.108021  109.229808  159.254241  52.587647
  9402.804  9402.800  0.500  1.108715  109.238345  159.276843  52.558596
  9403.105  9403.100  0.500  1.109340  109.224902  159.242794  52.514513
  9403.399  9403.400  0.500  1.110081  109.242385  159.263535  52.482496
  9403.708  9403.700  0.500  1.110742  109.244553  159.280977  52.453543
  9404.014  9404.000  0.500  1.111535  109.210380  159.243071  52.399502
  9404.307  9404.300  0.500  1.112274  109.207134  159.229599  52.356330
  9404.613  9404.600  0.500  1.113152  109.161178  159.180596  52.294313
  9404.907  9404.900  0.500  1.113950  109.177954  159.210582  52.262409
  9405.216  9405.200  0.500  1.114779  109.173378  159.216213  52.220949
  9405.510  9405.500  0.500  1.115671  109.165748  159.185063  52.164198
  9405.807  9405.800  0.500  1.116582  109.145690  159.153369  52.106338
  9406.109  9406.100  0.500  1.117586  109.145036  159.165396  52.057971
  9406.414  9406.400  0.500  1.118521  109.133998  159.173053  52.011824
  9406.708  9406.700  0.500  1.119626  109.128857  159.183375  51.957733
  9407.006  9407.000  0.500  1.120700  109.110612  159.152505  51.891902
  9407.304  9407.300  0.500  1.121913  109.107131  159.154234  51.829574
  9407.602  9407.600  0.500  1.123018  109.109098  159.159967  51.774189
  9407.907  9407.900  0.500  1.124351  109.072409  159.106530  51.687881
  9408.198  9408.200  0.500  1.125627  109.088039  159.132613  51.630398
  9408.495  9408.500  0.500  1.126811  109.087597  159.130202  51.568532
  9408.790  9408.800  0.500  1.128154  109.086331  159.138318  51.501931
  9409.099  9409.100  0.500  1.129313  109.089416  159.152451  51.446842
  9409.393  9409.400  0.500  1.130406  109.060882  159.113846  51.378174
  9409.695  9409.700  0.500  1.131419  109.089635  159.165828  51.342937
  9409.997  9410.000  0.500  1.132423  109.011709  159.066713  51.259502
  9410.291  9410.300  0.500  1.133242  109.057956  159.108898  51.231103
  9410.604  9410.600  0.500  1.133962  109.042055  159.089557  51.187994
  9410.899  9410.900  0.500  1.134480  109.014778  159.062207  51.152695
  9411.208  9411.200  0.500  1.135041  108.992334  159.058428  51.122804
  9411.502  9411.500  0.500  1.135189  108.996737  159.056385  51.114555
  9411.804  9411.800  0.500  1.135444  109.001232  159.057529  51.101911
  9412.106  9412.100  0.500  1.135492  108.998662  159.067694  51.102710
  9412.408  9412.400  0.500  1.135344  108.954142  158.996854  51.087529
  9412.706  9412.700  0.500  1.135188  109.003268  159.053455  51.113688
  9413.005  9413.000  0.500  1.135020  108.960712  158.997739  51.104385
  9413.314  9413.300  0.500  1.134707  108.940211  158.980326  51.114761
  9413.601  9413.600  0.500  1.134445  108.947401  158.990928  51.131587
  9413.907  9413.900  0.500  1.134149  108.947938  158.997019  51.148691
  9414.198  9414.200  0.500  1.133892  108.956137  158.999684  51.162674
  9414.507  9414.500  0.500  1.133668  108.914021  158.959802  51.161283
  9414.806  9414.800  0.500  1.133322  108.912852  158.981295  51.185945
  9415.100  9415.100  0.500  1.133191  108.912877  159.000936  51.198970
  9415.399  9415.400  0.500  1.132992  108.929269  159.023011  51.216260
  9415.697  9415.700  0.500  1.132846  108.912808  158.996241  51.215098
  9415.999  9416.000  0.500  1.132764  108.905081  158.974290  51.212237
  9416.290  9416.300  0.500  1.132742  108.897968  158.983040  51.216200
  9416.596  9416.600  0.500  1.132660  108.913591  159.005763  51.227698
  9416.883  9416.900  0.500  1.132649  108.911334  159.012125  51.230308
  9417.201  9417.200  0.500  1.132788  108.892301  158.978879  51.212463
  9417.495  9417.500  0.500  1.132755  108.815124  158.879960  51.182316
  9417.801  9417.800  0.500  1.132859  108.827261  158.882960  51.177975
  9418.100  9418.100  0.500  1.132936  108.830658  158.906764  51.181694
  9418.399  9418.400  0.500  1.132881  108.847238  158.926526  51.190868
  9418.709  9418.700  0.500  1.132909  108.866000  158.965826  51.202087
  9419.003  9419.000  0.500  1.132901  108.832465  158.922877  51.188644
  9419.199  9419.200  0.500  1.132914  108.796037  158.865212  51.169414
  9420.206  9420.190  0.500  1.132827  108.773287  158.857214  51.171300
  9421.209  9421.190  0.500  1.132370  108.762928  158.862614  51.196407
  9422.224  9422.210  0.500  1.131827  108.740862  158.847411  51.219339
  9423.270  9423.260  0.500  1.130774  108.725045  158.850571  51.274321
  9424.320  9424.320  0.500  1.129444  108.716573  158.822904  51.333617
  9425.420  9425.400  0.500  1.127767  108.696796  158.824725  51.420346
  9426.517  9426.500  0.500  1.125993  108.675469  158.808097  51.506286
  9427.629  9427.620  0.500  1.124036  108.664498  158.812789  51.608671
  9428.776  9428.760  0.500  1.122131  108.654282  158.818737  51.709012
  9429.923  9429.910  0.500  1.120300  108.641105  158.813898  51.802211
  9431.090  9431.090  0.500  1.118626  108.581680  158.733626  51.862781
  9432.287  9432.280  0.500  1.116992  108.562451  158.720385  51.943259
  9433.520  9433.500  0.500  1.115672  108.555300  158.717575  52.010960
  9434.749  9434.730  0.500  1.114541  108.516463  158.679501  52.057342
  9436.001  9435.980  0.500  1.113783  108.447320  158.614682  52.075518
  9437.258  9437.250  0.500  1.113121  107.960336  157.930319  51.885152
  9438.538  9438.540  0.500  1.112689  108.289294  158.433797  52.073044
  9439.857  9439.850  0.500  1.112289  108.415259  158.638067  52.161055
  9441.195  9441.180  0.500  1.111951  108.387654  158.619745  52.172688
  9442.534  9442.530  0.500  1.111768  108.327090  158.535319  52.154464
  9443.912  9443.900  0.500  1.111702  108.367917  158.601388  52.179601
  9445.282  9445.280  0.500  1.111664  108.294536  158.515267  52.153270
  9446.688  9446.690  0.500  1.111591  108.251892  158.468861  52.141831
  9448.117  9448.110  0.500  1.111599  108.267705  158.534828  52.163072
  9449.566  9449.550  0.500  1.111612  108.213747  158.476852  52.143324
  9451.026  9451.010  0.500  1.111724  108.191303  158.468955  52.134909
  9452.499  9452.490  0.500  1.111854  108.179874  158.472261  52.129198
  9453.992  9453.990  0.500  1.112160  108.116665  158.388866  52.085832
  9455.512  9455.510  0.500  1.112451  108.113527  158.417656  52.080127
  9457.059  9457.050  0.500  1.112782  108.076734  158.373818  52.048495
  9458.619  9458.610  0.500  1.113152  108.048129  158.353994  52.022747
  9460.183  9460.180  0.500  1.113493  108.022096  158.351666  52.004250
  9461.794  9461.780  0.500  1.113947  108.004755  158.357478  51.982538
  9463.413  9463.390  0.500  1.114357  107.973374  158.323211  51.949999
  9465.033  9465.030  0.500  1.114471  107.918946  158.283282  51.930985
  9466.685  9466.680  0.500  1.114360  107.904539  158.250058  51.925828
  9468.360  9468.350  0.500  1.114118  107.837010  158.170470  51.912293
  9470.059  9470.040  0.500  1.113645  107.814999  158.187394  51.942377
  9471.750  9471.750  0.500  1.112913  107.790779  158.172631  51.975573
  9473.497  9473.480  0.500  1.111980  107.808948  158.229250  52.042746
  9475.241  9475.230  0.500  1.110807  107.724616  158.130309  52.071243
  9477.004  9476.990  0.500  1.109443  107.693384  158.103059  52.133329
  9478.784  9478.780  0.500  1.108130  107.673273  158.102925  52.201752
  9480.591  9480.580  0.500  1.106841  107.622509  158.045115  52.249956
  9482.415  9482.410  0.500  1.105895  107.608599  158.044319  52.299178
  9484.251  9484.250  0.500  1.104937  107.581580  158.024607  52.342786
  9486.123  9486.110  0.500  1.104228  107.509090  157.941213  52.352224
  9488.011  9487.990  0.500  1.103653  107.497642  157.951253  52.385700
  9489.896  9489.890  0.500  1.103108  107.429137  157.892712  52.394833
  9491.813  9491.810  0.500  1.102792  107.416290  157.918246  52.419861
  9493.766  9493.750  0.500  1.102303  107.397564  157.926471  52.448230
  9495.727  9495.710  0.500  1.101871  107.338926  157.861538  52.449310
  9497.678  9497.680  0.500  1.101233  107.299766  157.818721  52.468574
  9499.695  9499.680  0.500  1.100449  107.233159  157.733404  52.481325
  9501.698  9501.690  0.500  1.099619  107.205405  157.719097  52.520155
  9503.729  9503.720  0.500  1.098676  107.164227  157.676588  52.555520
  9505.788  9505.780  0.500  1.097830  107.131186  157.677125  52.600156
  9507.868  9507.850  0.500  1.097025  107.102328  157.681160  52.643898
  9509.940  9509.940  0.500  1.096214  107.090538  157.685374  52.687992
  9512.061  9512.050  0.500  1.095401  107.036915  157.643663  52.716895
  9514.202  9514.180  0.500  1.094626  106.986483  157.602952  52.744129
  9516.328  9516.320  0.500  1.093998  106.941095  157.570617  52.766439
  9518.498  9518.490  0.500  1.093338  106.907282  157.541253  52.791439
  9520.689  9520.680  0.500  1.092852  106.883037  157.538358  52.816150
  9522.877  9522.880  0.500  1.092486  106.872277  157.549755  52.839289
  9525.113  9525.100  0.500  1.092119  106.784179  157.437303  52.820985
  9527.366  9527.350  0.500  1.091844  106.756263  157.426360  52.831848
  9529.620  9529.610  0.500  1.091693  106.714439  157.419287  52.837452
  9531.910  9531.890  0.500  1.091665  106.659842  157.370984  52.822722
  9534.209  9534.190  0.500  1.091519  106.619248  157.330315  52.816782
  9536.526  9536.510  0.500  1.091224  106.572176  157.284806  52.817050
  9538.870  9538.850  0.500  1.090660  106.539876  157.268130  52.841238
  9541.208  9541.200  0.500  1.089992  106.524790  157.266669  52.876096
  9543.583  9543.580  0.500  1.089385  106.429490  157.176458  52.877836
  9545.986  9545.970  0.500  1.088649  106.430191  157.224238  52.932833
  9548.387  9548.390  0.500  1.087954  106.356737  157.178666  52.954304
  9550.824  9550.820  0.500  1.087268  106.334999  157.143417  52.978760
  9553.291  9553.270  0.500  1.086397  106.242594  157.035106  52.988347
  9555.758  9555.750  0.500  1.085452  106.204011  157.006197  53.028685
  9558.259  9558.240  0.500  1.084406  106.182129  157.018555  53.088372
  9560.752  9560.750  0.500  1.083147  106.143034  157.002540  53.149859
  9563.287  9563.270  0.500  1.082009  106.111021  156.994360  53.207581
  9565.827  9565.820  0.500  1.080981  106.025126  156.878727  53.223078
  9568.404  9568.390  0.500  1.079965  105.967122  156.828958  53.260289
  9570.986  9570.970  0.500  1.079209  105.943833  156.838552  53.303801
  9573.586  9573.580  0.500  1.078652  106.126879  157.142549  53.436873
  9576.219  9576.200  0.500  1.078102  106.163926  157.236632  53.498295
  9578.861  9578.850  0.500  1.077527  106.148120  157.267935  53.539726
  9581.520  9581.510  0.500  1.076943  106.101916  157.231013  53.558433
  9584.205  9584.190  0.500  1.076260  106.079866  157.235423  53.596519
  9586.899  9586.890  0.500  1.075606  106.041352  157.219659  53.626213
  9589.639  9589.610  0.500  1.074815  105.986093  157.168983  53.651321
  9592.356  9592.350  0.500  1.074053  105.881522  157.056749  53.653901
  9595.126  9595.100  0.500  1.073139  105.850023  157.042924  53.698227
  9597.887  9597.880  0.500  1.072293  105.818633  157.045908  53.744731
  9600.700  9600.670  0.500  1.071420  105.758360  156.989636  53.772346
  9603.491  9603.490  0.500  1.070521  105.715202  156.956343  53.809346
  9606.344  9606.320  0.500  1.069624  105.673729  156.935953  53.850639
  9609.179  9609.170  0.500  1.068647  105.616410  156.887896  53.886738
  9612.063  9612.050  0.500  1.067748  105.566708  156.873636  53.930306
  9614.953  9614.940  0.500  1.066914  105.487916  156.785135  53.944851
  9617.865  9617.850  0.500  1.066087  105.204844  156.368505  53.845992
  9620.774  9620.770  0.500  1.065426  105.347206  156.618804  53.967861
  9623.737  9623.720  0.500  1.064815  105.340258  156.657629  54.014233
  9626.707  9626.690  0.500  1.064182  105.264719  156.596695  54.027441
  9629.686  9629.670  0.500  1.063624  105.218383  156.574995  54.050076
  9632.695  9632.680  0.500  1.062965  105.151932  156.511664  54.063856
  9635.722  9635.700  0.500  1.062348  104.900234  156.194435  53.987578
  9638.763  9638.750  0.500  1.061629  105.020879  156.412180  54.101709
  9641.834  9641.810  0.500  1.060796  104.973075  156.377081  54.134628
  9644.891  9644.890  0.500  1.060019  104.920567  156.333156  54.161507
  9648.006  9647.990  0.500  1.059121  104.853903  156.276666  54.190571
  9651.111  9651.110  0.500  1.058215  104.742957  156.156886  54.198094
  9654.267  9654.250  0.500  1.057304  104.726424  156.168661  54.251624
  9657.416  9657.400  0.500  1.056397  104.701642  156.180485  54.304956
  9660.600  9660.580  0.500  1.055325  104.632405  156.115262  54.340464
  9663.774  9663.770  0.500  1.054358  104.560665  156.044988  54.368596
  9667.003  9666.990  0.500  1.053312  104.343793  155.759660  54.325953
  9670.238  9670.220  0.500  1.052299  104.396596  155.864045  54.417481
  9673.491  9673.470  0.500  1.051312  104.353800  155.860768  54.470054
  9676.771  9676.750  0.500  1.050220  104.309703  155.832201  54.519569
  9680.061  9680.040  0.500  1.049216  104.235246  155.760943  54.549407
  9683.382  9683.350  0.500  1.048362  104.169073  155.710548  54.578317
  9686.685  9686.670  0.500  1.047373  104.097764  155.649197  54.610789
  9690.051  9690.020  0.500  1.046589  104.020089  155.576773  54.628180
  9693.403  9693.390  0.500  1.045777  103.972790  155.553874  54.664534
  9696.798  9696.770  0.500  1.044899  103.928297  155.534841  54.705870
  9700.191  9700.180  0.500  1.043963  103.827389  155.417830  54.715895
  9703.624  9703.600  0.500  1.043141  103.744850  155.361447  54.740995
  9707.063  9707.050  0.500  1.042146  103.675297  155.284820  54.768467
  9710.533  9710.510  0.500  1.041090  102.085616  152.921041  53.991772
  9714.014  9713.990  0.500  1.040209  103.580184  155.208083  54.847573
  9717.506  9717.490  0.500  1.039247  103.512744  155.170085  54.886885
  9721.037  9721.010  0.500  1.038238  103.432312  155.098370  54.916944
  9724.574  9724.550  0.500  1.037312  103.380690  155.033055  54.944635
  9728.127  9728.100  0.500  1.036484  103.273995  154.946453  54.959436
  9731.698  9731.680  0.500  1.035559  103.228629  154.922814  55.001930
  9735.297  9735.280  0.500  1.034652  103.161619  154.858701  55.029046
  9738.919  9738.890  0.500  1.033746  103.097453  154.804899  55.059777
  9742.543  9742.520  0.500  1.032803  103.030658  154.750697  55.092415
  9746.200  9746.180  0.500  1.031857  102.947166  154.674126  55.117287
  9749.863  9749.850  0.500  1.030865  102.883041  154.632330  55.157087
  9753.561  9753.540  0.500  1.029824  102.783235  154.537287  55.180580
  9757.267  9757.250  0.500  1.028875  102.736741  154.513661  55.224550
  9760.997  9760.980  0.500  1.027910  102.648833  154.408438  55.240206
  9764.725  9764.720  0.500  1.026989  102.570164  154.354973  55.271979
  9768.497  9768.490  0.500  1.025982  102.494758  154.298780  55.307511
  9772.288  9772.280  0.500  1.025081  102.317425  154.064284  55.273256
  9776.079  9776.080  0.500  1.023994  102.313098  154.102999  55.347284
  9779.918  9779.910  0.500  1.022925  102.245956  154.046982  55.386339
  9783.760  9783.750  0.500  1.021827  101.237418  152.554771  54.910083
  9787.630  9787.610  0.500  1.020822  102.142510  153.967066  55.474106
  9791.499  9791.490  0.500  1.019623  101.835569  153.567154  55.396445
  9795.396  9795.390  0.500  1.018645  102.038585  153.902381  55.571684
  9799.321  9799.310  0.500  1.017536  101.916917  153.766428  55.584180
  9803.266  9803.250  0.500  1.016326  100.302663  151.378941  54.787414
  9807.227  9807.210  0.500  1.015306  101.802403  153.698604  55.683700
  9811.183  9811.180  0.500  1.014308  101.702742  153.607236  55.706165
  9815.200  9815.180  0.500  1.013210  101.604406  153.509501  55.731891
  9819.212  9819.190  0.500  1.012278  101.552328  153.483896  55.774551
  9823.232  9823.230  0.500  1.011219  101.380127  153.276547  55.758238
  9827.305  9827.280  0.500  1.010030  101.360178  153.282952  55.826912
  9831.352  9831.350  0.500  1.009070  101.261444  153.187605  55.845769
  9835.470  9835.440  0.500  1.008031  100.707941  152.408272  55.619407
  9839.562  9839.550  0.500  1.007116  101.116017  153.069834  55.911955
  9843.695  9843.680  0.500  1.006074  100.553385  152.278312  55.680809
  9847.840  9847.830  0.500  1.005142  100.950405  152.924389  55.969214
  9852.006  9851.990  0.500  1.004078  100.875565  152.859343  56.004962
  9856.200  9856.180  0.500  1.003128  100.770488  152.742224  56.015224
  9860.402  9860.380  0.500  1.002051  100.686164  152.667552  56.048159
  9864.629  9864.610  0.500  1.000885  100.616835  152.604791  56.090497
  9868.876  9868.850  0.500  0.999762  100.519203  152.516042  56.120848
  9873.114  9873.110  0.500  0.998596  100.437386  152.438559  56.157776
  9877.416  9877.390  0.500  0.997426  100.346840  152.351702  56.191502
  9881.699  9881.690  0.500  0.996198  99.191632  150.648410  55.631552
  9886.034  9886.010  0.500  0.995166  100.062372  152.030458  56.199909
  9890.372  9890.350  0.500  0.993974  100.045665  152.056476  56.276531
  9894.718  9894.710  0.500  0.992751  99.978470  151.985843  56.319229
  9899.110  9899.090  0.500  0.991697  99.909119  151.920243  56.354325
  9903.494  9903.480  0.500  0.990554  99.797465  151.806112  56.376354
  9907.911  9907.900  0.500  0.989419  99.711382  151.748705  56.419070
  9912.367  9912.330  0.500  0.988338  99.611794  151.637680  56.438778
  9916.788  9916.780  0.500  0.987254  99.534051  151.559815  56.470938
  9921.264  9921.250  0.500  0.986249  99.426096  151.454367  56.488381
  9925.770  9925.740  0.500  0.985163  99.318459  151.345502  56.509147
  9930.272  9930.250  0.500  0.984045  99.141116  151.108965  56.483946
  9934.816  9934.780  0.500  0.983024  98.968793  150.909223  56.466893
  9939.356  9939.330  0.500  0.981939  99.116935  151.202051  56.637859
  9943.922  9943.900  0.500  0.980764  99.018388  151.089367  56.662188
  9948.509  9948.480  0.500  0.979571  98.905022  150.980617  56.689011
  9953.109  9953.090  0.500  0.978317  97.724114  149.233086  56.103153
  9957.760  9957.710  0.500  0.977048  98.634204  150.672230  56.716143
  9962.377  9962.360  0.500  0.975799  98.563007  150.603046  56.760974
  9967.046  9967.020  0.500  0.974562  98.219275  150.125263  56.650935
  9971.745  9971.700  0.500  0.973272  98.531900  150.664029  56.927584
  9976.423  9976.400  0.500  0.972157  98.366610  150.453288  56.911399
  9981.144  9981.120  0.500  0.971052  98.201289  150.286262  56.911047
  9985.887  9985.860  0.500  0.970091  96.684325  147.994582  56.097106
  9990.656  9990.610  0.500  0.968789  98.010147  150.084620  56.963456
  9995.413  9995.390  0.500  0.967668  97.875339  149.927397  56.967635
  10000.226  10000.190  0.500  0.966631  95.687238  146.622604  55.769734
  10005.026  10005.000  0.500  0.965367  97.834473  149.939253  57.103374
  10009.862  10009.830  0.500  0.964318  97.701707  149.796425  57.108863
  10014.732  10014.690  0.500  0.963107  95.842327  147.026231  56.120641
  10019.586  10019.560  0.500  0.961965  97.452305  149.541805  57.146111
  10024.471  10024.450  0.500  0.960806  97.366980  149.468390  57.184255
  10029.386  10029.360  0.500  0.959585  97.240701  149.316556  57.195980
  10034.320  10034.290  0.500  0.958377  96.979161  148.946938  57.123380
  10039.254  10039.230  0.500  0.957197  97.133037  149.246274  57.305732
  10044.237  10044.200  0.500  0.955910  97.028801  149.154429  57.344211
  10049.211  10049.190  0.500  0.954474  96.906162  148.997236  57.366134
  10054.213  10054.190  0.500  0.953275  96.793646  148.885019  57.391674
  10059.259  10059.220  0.500  0.952033  96.692455  148.780933  57.422845
  10064.306  10064.260  0.500  0.950806  96.583247  148.675664  57.452635
  10069.345  10069.320  0.500  0.949587  96.460033  148.539726  57.470127
  10074.433  10074.400  0.500  0.948443  96.361698  148.436437  57.495933
  10079.535  10079.500  0.500  0.947225  96.248231  148.319007  57.520424
  10084.633  10084.620  0.500  0.946080  96.133179  148.202742  57.541185
  10089.794  10089.760  0.500  0.944871  93.714189  144.523796  56.180689
  10094.948  10094.920  0.500  0.943643  95.885405  147.921115  57.571992
  10100.128  10100.100  0.500  0.942518  95.795039  147.832573  57.602284
  10105.314  10105.290  0.500  0.941390  95.692827  147.741385  57.631730
  10110.550  10110.510  0.500  0.940177  95.590425  147.640453  57.662274
  10115.765  10115.740  0.500  0.938978  95.482243  147.541649  57.692810
  10121.012  10120.990  0.500  0.937739  95.374676  147.412475  57.713773
  10126.282  10126.260  0.500  0.936559  95.258762  147.291299  57.734410
  10131.571  10131.550  0.500  0.935212  95.150232  147.181544  57.769147
  10136.888  10136.860  0.500  0.933916  95.012882  146.992213  57.769633
  10142.219  10142.190  0.500  0.932601  94.928336  146.926398  57.819784
  10147.561  10147.540  0.500  0.931266  94.820665  146.817389  57.854038
  10152.944  10152.910  0.500  0.929978  94.707304  146.699833  57.882222
  10158.324  10158.290  0.500  0.928687  94.601362  146.593682  57.915094
  10163.723  10163.700  0.500  0.927452  94.488814  146.470217  57.937803
  10169.146  10169.120  0.500  0.926179  94.363691  146.331672  57.956756
  10174.598  10174.570  0.500  0.925000  94.251302  146.201370  57.973425
  10180.064  10180.030  0.500  0.923688  94.138251  146.085752  58.003629
  10185.532  10185.510  0.500  0.922499  94.022282  145.978906  58.030196
  10191.046  10191.010  0.500  0.921264  93.897815  145.827865  58.041779
  10196.566  10196.530  0.500  0.920010  93.682677  145.549311  58.003615
  10202.097  10202.070  0.500  0.918736  93.666991  145.590127  58.093830
  10207.652  10207.620  0.500  0.917433  93.521703  145.411019  58.098011
  10213.231  10213.200  0.500  0.916215  93.408557  145.298170  58.123656
  10218.826  10218.800  0.500  0.914951  93.293006  145.178263  58.149165
  10224.440  10224.410  0.500  0.913583  93.180510  145.038045  58.172548
  10230.075  10230.050  0.500  0.912370  93.319372  145.299505  58.348132
  10235.729  10235.700  0.500  0.911138  93.206878  145.205200  58.382117
  10241.403  10241.370  0.500  0.909733  93.124707  145.132908  58.435125
  10247.088  10247.060  0.500  0.908447  92.995212  144.978821  58.448205
