# XDI/1.0 BlueSky/1.10.0 BMM/2023-1.0-py310-tiled
# Beamline.name: BMM (06BM) -- Beamline for Materials Measurement (NIST)
# Beamline.xray_source: NSLS-II three-pole wiggler
# Beamline.collimation: paraboloid mirror, 5 nm Rh on 30 nm Pt
# Beamline.focusing: not in use
# Beamline.harmonic_rejection: flat mirror, Si stripe, pitch = 7.0 mrad relative to beam
# Beamline.software: Bluesky 1.10.0, Ophyd 1.7.0, DataBroker 2.0.0b13, Python 3.10.8, 2023-1.0-py310-tiled
# Detector.I0: 10 cm N2
# Detector.I1: 25 cm N2
# Detector.I2: 25 cm N2
# Element.symbol: Ce
# Element.edge: L1
# Element.reference: Ce
# Element.reference_material: CeO2
# Facility.name: NSLS-II
# Facility.energy: 3.0
# Facility.current: 400.5
# Facility.mode: top-off
# Facility.GUP: 301027
# Facility.SAF: 310583
# Facility.cycle: 2023-2
# Mono.name: Si(111)
# Mono.d_spacing: 3.1351860
# Mono.encoder_resolution: 0.0000050 deg/ct
# Mono.angle_offset: 16.0754326 deg
# Mono.scan_mode: pseudo channel cut
# Mono.scan_type: step
# Mono.direction: forward in energy
# Sample.name: CeO2
# Sample.prep: PEG pellet
# Sample.x: 109.138 mm
# Sample.y: 153.150 mm
# Sample.SDD_position: 205.000 mm
# Scan.experimenters: Bruce Ravel
# Scan.edge_energy: 6548.8
# Scan.start_time: 2023-05-28T12:36:40
# Scan.end_time: 2023-05-28T12:44:48
# Scan.transient_id: 78686
# Scan.uid: 7bb79308-2729-412a-b13a-0e3c914248a4
# Scan.plot_hint: ln(It/Ir)  --  ln($6/$7)
# Column.1: energy eV
# Column.2: requested_energy eV
# Column.3: measurement_time seconds
# Column.4: xmu 
# Column.5: I0 nA
# Column.6: It nA
# Column.7: Ir nA
# ///////////
# sample courtesy Martin Stennett, University of Sheffield
# -----------
# energy  requested_energy  measurement_time  xmu  I0  It  Ir
  6348.798  6348.800  0.500  2.257862  152.953692  113.955595  11.916769
  6358.810  6358.800  0.500  2.247375  153.233258  114.693343  12.120366
  6368.815  6368.800  0.500  2.236596  153.562298  115.449726  12.332515
  6378.814  6378.800  0.500  2.226178  153.849110  116.123807  12.534423
  6388.846  6388.800  0.500  2.216376  154.095515  116.845379  12.736552
  6398.801  6398.800  0.500  2.206541  154.336172  117.549076  12.939896
  6408.826  6408.800  0.500  2.196327  154.525258  118.210327  13.146277
  6418.814  6418.800  0.500  2.186262  154.732601  118.971496  13.364761
  6428.816  6428.800  0.500  2.176418  154.867249  119.565499  13.564369
  6438.814  6438.800  0.500  2.166874  155.000208  120.184998  13.765396
  6448.817  6448.800  0.500  2.157503  152.842674  119.004560  13.758526
  6458.819  6458.800  0.500  2.147618  153.156942  119.743584  13.981491
  6468.810  6468.800  0.500  2.137718  155.350728  122.007488  14.387574
  6478.812  6478.800  0.500  2.127916  155.416295  122.596189  14.599398
  6488.812  6488.800  0.500  2.118272  155.612438  123.210993  14.814787
  6498.815  6498.800  0.500  2.109100  155.733326  123.854124  15.029346
  6509.646  6508.800  0.500  2.099359  156.185135  124.751750  15.286444
  6518.781  6518.800  0.500  2.090272  156.432641  125.455298  15.512979
  6520.777  6520.800  0.500  2.088314  156.464472  125.578007  15.558587
  6522.786  6522.800  0.500  2.086462  156.477259  125.698240  15.602356
  6524.786  6524.800  0.500  2.084649  156.491082  125.825968  15.646560
  6526.783  6526.800  0.500  2.082755  156.507753  125.937354  15.690088
  6528.788  6528.800  0.500  2.080819  156.518500  126.039618  15.733267
  6530.786  6530.800  0.500  2.079014  156.543481  126.177107  15.778886
  6532.791  6532.800  0.500  2.077157  156.558335  126.354922  15.830495
  6534.788  6534.800  0.500  2.075352  156.562694  126.370710  15.861064
  6536.795  6536.800  0.500  2.073509  156.574438  126.460554  15.901624
  6538.798  6538.800  0.500  2.071624  156.592704  126.586424  15.947493
  6539.084  6539.100  0.500  2.071382  156.573232  126.575499  15.949974
  6539.388  6539.400  0.500  2.071074  156.558256  126.632102  15.962026
  6539.685  6539.700  0.500  2.070841  156.568821  126.618598  15.964032
  6539.985  6540.000  0.500  2.070604  156.558773  126.688685  15.976651
  6540.284  6540.300  0.500  2.070239  156.567925  126.685114  15.982043
  6540.586  6540.600  0.500  2.069967  156.554139  126.698988  15.988140
  6540.889  6540.900  0.500  2.069717  156.540369  126.684977  15.990370
  6541.182  6541.200  0.500  2.069440  156.576889  126.752639  16.003341
  6541.486  6541.500  0.500  2.069202  156.554581  126.740873  16.005662
  6541.783  6541.800  0.500  2.068886  156.547822  126.738951  16.010472
  6542.088  6542.100  0.500  2.068624  156.555453  126.789380  16.021051
  6542.388  6542.400  0.500  2.068388  156.553025  126.785952  16.024387
  6542.693  6542.700  0.500  2.068147  156.552048  126.800691  16.030127
  6542.988  6543.000  0.500  2.067801  156.561874  126.824596  16.038692
  6543.296  6543.300  0.500  2.067679  156.563876  126.836808  16.042190
  6543.593  6543.600  0.500  2.067426  156.551472  126.854178  16.048443
  6543.896  6543.900  0.500  2.067087  156.557954  126.887716  16.058129
  6544.189  6544.200  0.500  2.066930  156.561215  126.906934  16.063090
  6544.496  6544.500  0.500  2.066666  156.557179  126.925401  16.069666
  6544.789  6544.800  0.500  2.066439  156.554975  126.940403  16.075217
  6545.090  6545.100  0.500  2.066276  156.557578  126.950750  16.079149
  6545.388  6545.400  0.500  2.066053  156.567480  126.967077  16.084802
  6545.692  6545.700  0.500  2.065740  156.571842  126.981688  16.091683
  6545.995  6546.000  0.500  2.065613  156.577919  127.008097  16.097071
  6546.296  6546.300  0.500  2.065288  156.568612  127.020316  16.103866
  6546.596  6546.600  0.500  2.065212  156.563344  127.036340  16.107113
  6546.897  6546.900  0.500  2.064811  156.563529  127.067345  16.117504
  6547.196  6547.200  0.500  2.064559  156.571354  127.085029  16.123820
  6547.494  6547.500  0.500  2.064357  156.566230  127.053729  16.123094
  6547.795  6547.800  0.500  2.064088  156.562331  127.083070  16.131167
  6548.091  6548.100  0.500  2.063709  156.553279  127.066336  16.135155
  6548.396  6548.400  0.500  2.063568  156.543917  127.098169  16.141466
  6548.694  6548.700  0.500  2.063280  156.552012  127.097353  16.146010
  6548.998  6549.000  0.500  2.063022  156.551758  127.146136  16.156378
  6549.298  6549.300  0.500  2.062852  156.547867  127.149032  16.159493
  6549.601  6549.600  0.500  2.062578  156.543177  127.114988  16.159589
  6549.899  6549.900  0.500  2.062289  156.542861  127.141719  16.167667
  6550.197  6550.200  0.500  2.062088  156.544574  127.170536  16.174579
  6550.500  6550.500  0.500  2.061898  156.534594  127.155268  16.175716
  6550.798  6550.800  0.500  2.061550  156.531112  127.198964  16.186907
  6551.094  6551.100  0.500  2.061330  156.529137  127.213849  16.192363
  6551.396  6551.400  0.500  2.061091  156.514498  127.214856  16.196352
  6551.696  6551.700  0.500  2.061027  156.518073  127.231013  16.199457
  6551.994  6552.000  0.500  2.060848  156.516507  127.270084  16.207322
  6552.301  6552.300  0.500  2.060639  156.525667  127.233843  16.206097
  6552.597  6552.600  0.500  2.060485  156.512043  127.216538  16.206393
  6552.899  6552.900  0.500  2.060419  156.517503  127.243374  16.210886
  6553.197  6553.200  0.500  2.060043  156.500145  127.240917  16.216658
  6553.502  6553.500  0.500  2.059941  156.498695  127.244163  16.218730
  6553.800  6553.800  0.500  2.059899  156.501288  127.292049  16.225523
  6554.104  6554.100  0.500  2.059734  156.492761  127.323028  16.232151
  6554.402  6554.400  0.500  2.059542  156.503327  127.358359  16.239769
  6554.699  6554.700  0.500  2.059369  156.495178  127.329996  16.238962
  6555.001  6555.000  0.500  2.059354  156.495904  127.353131  16.242144
  6555.299  6555.300  0.500  2.059128  156.495501  127.395409  16.251212
  6555.594  6555.600  0.500  2.058981  156.484457  127.389110  16.252805
  6555.899  6555.900  0.500  2.058918  156.500015  127.403382  16.255651
  6556.200  6556.200  0.500  2.058609  156.497090  127.410738  16.261616
  6556.500  6556.500  0.500  2.058443  156.495805  127.430943  16.266886
  6556.798  6556.800  0.500  2.058193  156.491362  127.444391  16.272667
  6557.099  6557.100  0.500  2.058019  156.479536  127.436779  16.274536
  6557.399  6557.400  0.500  2.057864  156.475539  127.460730  16.280118
  6557.699  6557.700  0.500  2.057667  156.472083  127.497752  16.288052
  6557.998  6558.000  0.500  2.057463  156.480322  127.480290  16.289143
  6558.295  6558.300  0.500  2.057228  156.482726  127.518974  16.297917
  6558.597  6558.600  0.500  2.057124  156.465847  127.547198  16.303223
  6558.896  6558.900  0.500  2.056885  156.474387  127.567508  16.309709
  6559.196  6559.200  0.500  2.056904  156.477416  127.589597  16.312232
  6559.497  6559.500  0.500  2.056795  156.472400  127.554447  16.309513
  6559.803  6559.800  0.500  2.056658  156.478136  127.560257  16.312490
  6560.105  6560.100  0.500  2.056612  156.494105  127.622890  16.321245
  6560.406  6560.400  0.500  2.056586  156.473533  127.615973  16.320779
  6560.705  6560.700  0.500  2.056516  156.478966  127.624325  16.323000
  6561.002  6561.000  0.500  2.056521  156.481074  127.664509  16.328049
  6561.301  6561.300  0.500  2.056487  156.478984  127.658431  16.327831
  6561.600  6561.600  0.500  2.056484  156.407039  127.645995  16.326291
  6561.897  6561.900  0.500  2.056665  156.273045  127.548830  16.310904
  6562.198  6562.200  0.500  2.056750  156.177229  127.493242  16.302414
  6562.495  6562.500  0.500  2.056648  156.105916  127.407266  16.293078
  6562.796  6562.800  0.500  2.056603  156.746311  127.920933  16.359515
  6563.097  6563.100  0.500  2.056540  156.928447  128.106668  16.384301
  6563.401  6563.400  0.500  2.056456  156.989623  128.160072  16.392498
  6563.700  6563.700  0.500  2.056453  157.000606  128.197875  16.397388
  6563.998  6564.000  0.500  2.056315  156.998553  128.203632  16.400387
  6564.304  6564.300  0.500  2.056253  157.010969  128.247955  16.407075
  6564.600  6564.600  0.500  2.056085  157.012235  128.254354  16.410646
  6564.897  6564.900  0.500  2.055866  157.023436  128.261907  16.415208
  6565.200  6565.200  0.500  2.055783  157.022806  128.266915  16.417213
  6565.494  6565.500  0.500  2.055719  157.018771  128.291918  16.421470
  6565.793  6565.800  0.500  2.055597  157.024720  128.358138  16.431945
  6566.100  6566.100  0.500  2.055475  157.021188  128.389985  16.438019
  6566.398  6566.400  0.500  2.055329  157.015118  128.379262  16.439057
  6566.699  6566.700  0.500  2.055262  157.026988  128.360883  16.437805
  6567.004  6567.000  0.500  2.055122  157.009395  128.366669  16.440840
  6567.296  6567.300  0.500  2.055091  157.000621  128.392379  16.444641
  6567.599  6567.600  0.500  2.055041  156.997660  128.407551  16.447411
  6567.895  6567.900  0.500  2.054948  157.000791  128.389081  16.446569
  6568.196  6568.200  0.500  2.054896  157.008270  128.412966  16.450496
  6568.500  6568.500  0.500  2.054784  156.989967  128.456645  16.457930
  6568.803  6568.800  0.500  2.054696  157.009932  128.482169  16.462656
  6569.103  6569.100  0.500  2.054717  157.002535  128.488776  16.463144
  6569.402  6569.400  0.500  2.054532  157.003729  128.538952  16.472633
  6569.704  6569.700  0.500  2.054460  156.996107  128.548899  16.475092
  6570.000  6570.000  0.500  2.054381  156.992797  128.559340  16.477719
  6570.300  6570.300  0.500  2.054194  156.994012  128.591326  16.484907
  6570.599  6570.600  0.500  2.054159  156.993080  128.598866  16.486449
  6570.897  6570.900  0.500  2.054058  156.990147  128.607051  16.489167
  6571.199  6571.200  0.500  2.053919  157.005915  128.655254  16.497638
  6571.501  6571.500  0.500  2.053893  156.996631  128.655961  16.498168
  6571.804  6571.800  0.500  2.053725  157.001783  128.667316  16.502387
  6572.106  6572.100  0.500  2.053573  156.989975  128.700412  16.509141
  6572.406  6572.400  0.500  2.053512  156.990399  128.683554  16.507979
  6572.704  6572.700  0.500  2.053420  156.995814  128.701896  16.511867
  6573.006  6573.000  0.500  2.053446  156.986733  128.725765  16.514499
  6573.303  6573.300  0.500  2.053247  156.981905  128.735096  16.518972
  6573.603  6573.600  0.500  2.053132  156.984357  128.755744  16.523518
  6573.799  6573.800  0.500  2.053079  156.988043  128.765953  16.525715
  6574.796  6574.790  0.500  2.052940  156.990108  128.834258  16.536769
  6575.806  6575.790  0.500  2.052675  157.007257  128.889641  16.548272
  6576.822  6576.810  0.500  2.052100  157.017593  128.915433  16.561103
  6577.882  6577.860  0.500  2.051189  157.021761  128.953778  16.581125
  6578.920  6578.920  0.500  2.050157  156.986965  129.032811  16.608418
  6579.990  6580.000  0.500  2.048903  156.997363  129.099937  16.637917
  6581.094  6581.100  0.500  2.047654  156.992325  129.126798  16.662164
  6582.219  6582.220  0.500  2.046330  157.003564  129.222185  16.696563
  6583.358  6583.360  0.500  2.045089  156.970616  129.257050  16.721815
  6584.515  6584.510  0.500  2.043700  156.995427  129.332621  16.754838
  6585.692  6585.690  0.500  2.042175  156.935144  129.332171  16.780356
  6586.879  6586.880  0.500  2.040734  156.769640  129.276196  16.797275
  6588.101  6588.100  0.500  2.039246  156.964269  129.496194  16.850931
  6589.331  6589.330  0.500  2.037953  156.960257  129.519323  16.875737
  6590.582  6590.580  0.500  2.036391  156.958511  129.619697  16.915227
  6591.853  6591.850  0.500  2.034988  156.967618  129.685168  16.947520
  6593.137  6593.140  0.500  2.033408  156.974976  129.744412  16.982070
  6594.450  6594.450  0.500  2.031793  156.975187  129.802967  17.017205
  6595.787  6595.780  0.500  2.030395  156.974110  129.833318  17.044987
  6597.132  6597.130  0.500  2.029032  156.983840  129.896263  17.076520
  6598.504  6598.500  0.500  2.027626  156.983958  129.973047  17.110656
  6599.883  6599.880  0.500  2.026389  156.982996  130.048601  17.141795
  6601.290  6601.290  0.500  2.025159  156.982564  130.136967  17.174551
  6602.715  6602.710  0.500  2.023860  156.946916  130.218638  17.207670
  6604.154  6604.150  0.500  2.022573  156.865837  130.255378  17.234679
  6605.615  6605.610  0.500  2.021377  156.979189  130.387021  17.272754
  6607.098  6607.090  0.500  2.020081  156.986053  130.448210  17.303269
  6608.598  6608.590  0.500  2.018698  157.016555  130.520900  17.336872
  6610.118  6610.110  0.500  2.017661  157.041992  130.648625  17.371835
  6611.657  6611.650  0.500  2.016407  157.036433  130.742012  17.406079
  6613.216  6613.210  0.500  2.015088  157.014749  130.779861  17.434094
  6614.788  6614.780  0.500  2.013694  157.021817  130.817563  17.463435
  6616.388  6616.380  0.500  2.012438  157.034588  130.907031  17.497345
  6618.000  6617.990  0.500  2.011132  157.001530  130.980729  17.530078
  6619.644  6619.630  0.500  2.009840  156.989187  131.069999  17.564700
  6621.285  6621.280  0.500  2.008615  156.993220  131.177976  17.600726
  6622.960  6622.950  0.500  2.007401  157.006955  131.291753  17.637388
  6624.646  6624.640  0.500  2.006037  157.024690  131.391445  17.674868
  6626.358  6626.350  0.500  2.004740  157.025405  131.488284  17.710847
  6628.082  6628.080  0.500  2.003260  156.805777  131.397418  17.724822
  6629.841  6629.830  0.500  2.001932  156.997819  131.655834  17.783290
  6631.595  6631.590  0.500  2.000415  157.018763  131.758702  17.824205
  6633.392  6633.380  0.500  1.998911  157.031671  131.794704  17.855916
  6635.189  6635.180  0.500  1.997375  157.053732  131.920807  17.900471
  6637.016  6637.010  0.500  1.995592  157.030882  131.994475  17.942428
  6638.858  6638.850  0.500  1.993978  157.039931  132.082546  17.983400
  6640.723  6640.710  0.500  1.992271  157.010331  132.172697  18.026419
  6642.602  6642.590  0.500  1.990493  157.014534  132.278807  18.072991
  6644.501  6644.490  0.500  1.988794  157.007706  132.350718  18.113570
  6646.417  6646.410  0.500  1.987032  157.024522  132.462198  18.160796
  6648.363  6648.350  0.500  1.985256  156.996096  132.573579  18.208380
  6650.315  6650.310  0.500  1.983409  157.010692  132.631776  18.250054
  6652.286  6652.280  0.500  1.981509  157.005212  132.721860  18.297172
  6654.295  6654.280  0.500  1.979594  156.987724  132.850317  18.349988
  6656.296  6656.290  0.500  1.977717  157.007676  132.978481  18.402210
  6658.328  6658.320  0.500  1.975870  156.990020  133.079901  18.450275
  6660.393  6660.380  0.500  1.974068  156.995878  133.197050  18.499832
  6662.460  6662.450  0.500  1.972228  156.985066  133.264062  18.543235
  6664.546  6664.540  0.500  1.970282  157.003128  133.394393  18.597511
  6666.662  6666.650  0.500  1.968488  157.007835  133.507482  18.646700
  6668.787  6668.780  0.500  1.966636  157.007437  133.627140  18.698009
  6670.925  6670.920  0.500  1.964670  156.983411  133.708780  18.746255
  6673.102  6673.090  0.500  1.962916  156.978483  133.832724  18.796572
  6675.295  6675.280  0.500  1.961131  156.957579  133.907926  18.840737
  6677.491  6677.480  0.500  1.959354  156.967202  134.010134  18.888649
  6679.708  6679.700  0.500  1.957602  156.955746  134.111874  18.936145
  6681.960  6681.950  0.500  1.955792  156.936218  134.189538  18.981427
  6684.220  6684.210  0.500  1.954019  156.945038  134.316143  19.033057
  6686.498  6686.490  0.500  1.952136  156.927190  134.430382  19.085148
  6688.798  6688.790  0.500  1.950183  156.918211  134.526853  19.136184
  6691.116  6691.110  0.500  1.948172  156.908303  134.652096  19.192557
  6693.465  6693.450  0.500  1.946156  156.884722  134.750495  19.245347
  6695.814  6695.800  0.500  1.944139  156.870031  134.837474  19.296645
  6698.189  6698.180  0.500  1.942072  156.836954  134.976038  19.356443
  6700.579  6700.570  0.500  1.940069  156.839137  135.098701  19.412886
  6703.004  6702.990  0.500  1.937975  156.824458  135.112176  19.455520
  6705.426  6705.420  0.500  1.935909  156.788791  135.218170  19.511034
  6707.879  6707.870  0.500  1.933899  156.781619  135.355537  19.570161
  6710.362  6710.350  0.500  1.931928  156.786548  135.495384  19.629021
  6712.845  6712.840  0.500  1.929894  156.776198  135.597214  19.683779
  6715.355  6715.350  0.500  1.928068  156.775415  135.731417  19.739277
  6717.874  6717.870  0.500  1.925940  156.728879  135.838436  19.796908
  6720.435  6720.420  0.500  1.923891  156.717015  135.902796  19.846916
  6723.004  6722.990  0.500  1.921765  156.724720  136.038643  19.909039
  6725.577  6725.570  0.500  1.919668  156.726980  136.165298  19.969400
  6728.192  6728.180  0.500  1.917353  156.728950  136.288121  20.033744
  6730.812  6730.800  0.500  1.914960  156.709349  136.418098  20.100899
  6733.462  6733.450  0.500  1.912648  156.707545  136.532222  20.164282
  6736.123  6736.110  0.500  1.910393  156.680241  136.640192  20.225782
  6738.797  6738.790  0.500  1.908070  156.666082  136.805971  20.297427
  6741.496  6741.490  0.500  1.905745  156.644326  136.889749  20.357122
  6744.224  6744.210  0.500  1.903575  156.615920  137.010462  20.419339
  6746.958  6746.950  0.500  1.901318  156.611259  137.175376  20.490109
  6749.710  6749.700  0.500  1.899033  156.584561  137.256966  20.549206
  6752.483  6752.480  0.500  1.896851  156.563676  137.379753  20.612497
  6755.286  6755.270  0.500  1.894605  156.550698  137.481447  20.674140
  6758.103  6758.090  0.500  1.892322  156.562146  137.641521  20.745530
  6760.933  6760.920  0.500  1.890039  156.525034  137.755027  20.810097
  6763.784  6763.770  0.500  1.887861  156.511680  137.854217  20.870479
  6766.658  6766.650  0.500  1.885506  156.513290  138.017723  20.944506
  6769.551  6769.540  0.500  1.883249  156.467124  138.103726  21.004916
  6772.460  6772.450  0.500  1.880858  156.450797  138.210419  21.071466
  6775.382  6775.370  0.500  1.878587  156.428588  138.316488  21.135576
  6778.335  6778.320  0.500  1.876210  156.450678  138.546271  21.221073
  6781.306  6781.290  0.500  1.873790  156.413749  138.674059  21.292108
  6784.287  6784.270  0.500  1.871329  156.382473  138.782296  21.361221
  6787.293  6787.280  0.500  1.868913  156.381711  138.954866  21.439527
  6790.315  6790.300  0.500  1.866515  156.373304  139.108188  21.514716
  6793.378  6793.350  0.500  1.864089  156.106424  139.004610  21.550901
  6796.437  6796.410  0.500  1.861644  154.661417  137.848136  21.423942
  6799.503  6799.490  0.500  1.859183  155.970438  139.181688  21.684497
  6802.616  6802.590  0.500  1.856664  156.078797  139.425904  21.777332
  6805.735  6805.710  0.500  1.854275  156.121204  139.591779  21.855376
  6808.868  6808.850  0.500  1.851891  156.069712  139.696130  21.923921
  6812.023  6812.000  0.500  1.849279  145.030082  129.991209  20.454183
  6815.202  6815.180  0.500  1.846917  155.608761  139.625264  22.022062
  6818.387  6818.370  0.500  1.844501  156.313606  140.410764  22.199520
  6821.599  6821.590  0.500  1.841951  156.245836  140.479768  22.267152
  6824.844  6824.820  0.500  1.839370  154.076151  138.700803  22.041991
  6828.086  6828.070  0.500  1.836820  155.886698  140.503762  22.385527
  6831.367  6831.350  0.500  1.834147  155.995090  140.804163  22.493423
  6834.649  6834.640  0.500  1.831580  155.976170  140.892056  22.565319
  6837.970  6837.950  0.500  1.828821  155.773987  140.845288  22.620140
  6841.285  6841.270  0.500  1.826061  146.198300  132.341443  21.313145
  6844.638  6844.620  0.500  1.823484  155.379488  140.809450  22.735418
  6848.011  6847.990  0.500  1.821026  155.523273  141.094191  22.837453
  6851.391  6851.370  0.500  1.818288  155.539062  141.300895  22.933614
  6854.803  6854.780  0.500  1.815556  155.517808  141.426743  23.016830
  6858.216  6858.200  0.500  1.813019  155.496263  141.547761  23.095037
  6861.665  6861.650  0.500  1.810399  155.022471  141.293680  23.114081
  6865.127  6865.110  0.500  1.807889  155.451751  141.866808  23.266144
  6868.612  6868.590  0.500  1.805173  155.441333  142.030869  23.356409
  6872.108  6872.090  0.500  1.802635  155.409667  142.166416  23.438111
  6875.629  6875.610  0.500  1.800012  155.361620  142.295780  23.521054
  6879.172  6879.150  0.500  1.797318  155.319722  142.416529  23.604520
  6882.718  6882.700  0.500  1.794666  155.261022  142.495779  23.680361
  6886.297  6886.280  0.500  1.792104  155.210854  142.607257  23.759685
  6889.899  6889.880  0.500  1.789342  155.160016  142.778948  23.854091
  6893.508  6893.490  0.500  1.786598  155.077572  142.880056  23.936577
  6897.110  6897.120  0.500  1.783765  155.039980  143.008715  24.026098
  6900.797  6900.780  0.500  1.780900  154.949947  143.072850  24.105842
  6904.466  6904.450  0.500  1.778175  154.881900  143.184888  24.190540
  6908.157  6908.140  0.500  1.775390  154.776467  143.281238  24.274336
  6911.832  6911.850  0.500  1.772603  154.634674  143.345477  24.352997
  6915.563  6915.580  0.500  1.769800  154.520412  143.402755  24.431105
  6919.309  6919.320  0.500  1.766949  154.377903  143.438528  24.506965
  6923.116  6923.090  0.500  1.764187  154.275828  143.493588  24.584179
  6926.889  6926.880  0.500  1.761355  154.146545  143.579836  24.668724
  6930.670  6930.680  0.500  1.758528  154.047666  143.674417  24.754857
  6934.535  6934.510  0.500  1.755835  153.964098  143.765680  24.837374
  6938.341  6938.350  0.500  1.752973  153.885986  143.841481  24.921689
  6942.229  6942.210  0.500  1.750187  153.789309  143.950148  25.010103
  6946.097  6946.090  0.500  1.747382  153.713836  144.086307  25.104074
  6949.978  6949.990  0.500  1.744321  153.579479  144.134921  25.189538
  6953.898  6953.910  0.500  1.741573  153.521349  144.243274  25.277832
  6957.867  6957.850  0.500  1.738716  153.386611  144.250004  25.351349
  6961.813  6961.810  0.500  1.735852  153.286079  144.400978  25.450672
  6965.766  6965.780  0.500  1.732873  153.176635  144.471104  25.538983
  6969.789  6969.780  0.500  1.729873  153.104250  144.590766  25.636936
  6973.781  6973.790  0.500  1.727001  152.998810  144.654891  25.722075
  6977.841  6977.830  0.500  1.724089  152.889367  144.727673  25.810079
  6981.893  6981.880  0.500  1.721247  152.762648  144.803651  25.897126
  6985.958  6985.950  0.500  1.718314  152.688048  144.910816  25.992407
  6990.045  6990.040  0.500  1.715410  152.572676  144.971742  26.078961
  6994.155  6994.150  0.500  1.712553  152.491486  145.047741  26.167292
  6998.285  6998.280  0.500  1.709580  152.359244  145.134927  26.260976
  7002.436  7002.430  0.500  1.706654  152.263134  145.248788  26.358582
  7006.599  7006.590  0.500  1.703654  152.146199  145.337370  26.453898
  7010.794  7010.780  0.500  1.700686  152.031370  145.412655  26.546268
  7014.999  7014.980  0.500  1.697835  151.916076  145.491938  26.636584
  7019.217  7019.210  0.500  1.694865  151.792914  145.507359  26.718647
  7023.463  7023.450  0.500  1.691953  151.694026  145.619378  26.817187
  7027.728  7027.710  0.500  1.688897  151.584543  145.710878  26.916170
  7032.006  7031.990  0.500  1.685832  151.490761  145.792236  27.013865
  7036.314  7036.290  0.500  1.682797  151.324806  145.871872  27.110777
  7040.629  7040.610  0.500  1.679713  151.236209  145.953615  27.209762
  7044.940  7044.950  0.500  1.676658  151.089336  146.019060  27.305265
  7049.337  7049.310  0.500  1.673520  150.944925  146.052933  27.397415
  7053.708  7053.690  0.500  1.670578  150.797133  146.126217  27.491925
  7058.074  7058.080  0.500  1.667582  150.710488  146.217074  27.591571
  7062.538  7062.500  0.500  1.664631  149.861852  145.621610  27.560419
  7066.918  7066.930  0.500  1.661453  150.441451  146.379074  27.791943
  7071.380  7071.380  0.500  1.658433  150.092025  146.186156  27.839272
  7075.830  7075.850  0.500  1.655485  148.734111  145.047475  27.703992
  7080.358  7080.340  0.500  1.652374  149.894024  146.396745  28.048827
  7084.831  7084.850  0.500  1.649361  149.682667  146.408399  28.135692
  7089.365  7089.380  0.500  1.646452  149.613777  146.555238  28.245952
  7093.912  7093.930  0.500  1.643328  149.432053  146.488591  28.321459
  7098.484  7098.500  0.500  1.640219  149.283519  146.538392  28.419309
  7103.118  7103.080  0.500  1.637118  149.143867  146.635556  28.526461
  7107.668  7107.690  0.500  1.634004  148.984892  146.694483  28.626948
  7112.294  7112.310  0.500  1.630862  148.656418  146.579897  28.694599
  7116.949  7116.960  0.500  1.627817  148.388985  146.512729  28.768897
  7121.601  7121.620  0.500  1.624599  148.092774  146.401618  28.839764
  7126.320  7126.300  0.500  1.621667  147.759781  146.293182  28.903015
  7130.992  7131.000  0.500  1.618692  147.362632  146.088328  28.948528
  7135.696  7135.720  0.500  1.615508  147.123085  146.037490  29.030751
  7140.469  7140.460  0.500  1.612245  146.997397  146.104821  29.139045
  7145.194  7145.210  0.500  1.609189  146.874135  146.182151  29.243722
  7149.974  7149.990  0.500  1.606006  146.772130  146.260173  29.352584
  7154.772  7154.790  0.500  1.602865  146.604251  146.271918  29.447296
  7159.580  7159.600  0.500  1.599803  146.436803  146.316140  29.546530
  7164.406  7164.430  0.500  1.596680  146.226922  146.314486  29.638633
  7169.274  7169.290  0.500  1.593580  145.999301  146.304066  29.728528
  7174.144  7174.160  0.500  1.590445  145.797073  146.269624  29.814848
  7179.041  7179.050  0.500  1.587233  145.569730  146.275004  29.911868
  7183.971  7183.960  0.500  1.584125  145.366770  146.277179  30.005441
  7188.873  7188.890  0.500  1.580987  145.161938  146.294629  30.103317
  7193.810  7193.830  0.500  1.577806  144.760054  146.094098  30.157842
  7198.785  7198.800  0.500  1.574561  144.718366  146.244938  30.287109
  7203.770  7203.790  0.500  1.571335  144.520553  146.180660  30.371594
  7208.762  7208.790  0.500  1.568212  144.288343  146.189293  30.468409
  7213.794  7213.820  0.500  1.564972  144.049081  146.185445  30.566480
  7218.843  7218.860  0.500  1.561753  143.811241  146.091699  30.645370
  7223.905  7223.920  0.500  1.558550  143.567404  146.088867  30.743093
  7228.975  7229.000  0.500  1.555330  142.427177  145.106293  30.634784
  7234.083  7234.100  0.500  1.552127  143.285702  146.179884  30.960446
  7239.194  7239.220  0.500  1.548949  143.084830  146.138236  31.050153
  7244.329  7244.360  0.500  1.545754  142.582771  145.903130  31.099402
  7249.538  7249.520  0.500  1.542581  142.597279  146.071915  31.234347
  7254.679  7254.700  0.500  1.539313  140.073482  143.717238  30.831437
  7259.861  7259.890  0.500  1.536081  142.128323  146.015460  31.425862
  7265.102  7265.110  0.500  1.532801  117.878520  121.251269  26.181795
  7270.311  7270.340  0.500  1.529805  142.304842  146.539282  31.737157
  7275.570  7275.590  0.500  1.526517  142.040977  146.484301  31.829734
  7280.830  7280.860  0.500  1.523330  141.981698  146.660436  31.969749
  7286.126  7286.150  0.500  1.520086  141.283158  146.182511  31.969094
  7291.459  7291.460  0.500  1.516772  141.466111  146.605621  32.168069
  7296.768  7296.790  0.500  1.513558  141.250449  146.547719  32.258884
  7302.117  7302.140  0.500  1.510328  139.146501  144.569213  31.926299
  7307.490  7307.510  0.500  1.507130  140.969560  146.679726  32.496137
  7312.869  7312.890  0.500  1.503749  140.748610  146.673118  32.604726
  7318.281  7318.300  0.500  1.500511  140.544915  146.675688  32.711045
  7323.701  7323.720  0.500  1.497290  140.333014  146.650626  32.810965
  7329.210  7329.170  0.500  1.494114  140.115010  146.608677  32.905944
  7334.650  7334.630  0.500  1.490874  139.900115  146.610954  33.013222
  7340.119  7340.110  0.500  1.487541  138.749336  145.604702  32.896104
  7345.619  7345.610  0.500  1.484330  139.469462  146.545123  33.215073
  7351.146  7351.130  0.500  1.481082  139.270173  146.540704  33.322129
  7356.691  7356.670  0.500  1.477892  139.101625  146.545314  33.429647
  7362.242  7362.220  0.500  1.474666  138.900093  146.521123  33.532117
  7367.820  7367.800  0.500  1.471321  138.664609  146.482878  33.635672
  7373.421  7373.400  0.500  1.468066  138.471649  146.468875  33.742130
  7379.008  7379.010  0.500  1.464775  138.220414  146.414316  33.840729
  7384.669  7384.650  0.500  1.461516  138.021263  146.431775  33.955249
  7390.283  7390.300  0.500  1.458227  137.789007  146.431127  34.066971
  7395.957  7395.970  0.500  1.455021  137.622289  146.488657  34.189799
  7401.640  7401.660  0.500  1.451729  137.394020  146.432548  34.289391
