# XDI/1.0 BlueSky/1.10.0 BMM/2023-1.0-py310-tiled
# Beamline.name: BMM (06BM) -- Beamline for Materials Measurement (NIST)
# Beamline.xray_source: NSLS-II three-pole wiggler
# Beamline.collimation: paraboloid mirror, 5 nm Rh on 30 nm Pt
# Beamline.focusing: not in use
# Beamline.harmonic_rejection: flat mirror, Pt stripe, pitch = 7.0 mrad relative to beam
# Beamline.software: Bluesky 1.10.0, Ophyd 1.7.0, DataBroker 2.0.0b13, Python 3.10.8, 2023-1.0-py310-tiled
# Detector.I0: 10 cm N2
# Detector.I1: 25 cm N2
# Detector.I2: 25 cm N2
# Element.symbol: Gd
# Element.edge: L1
# Element.reference: Gd
# Element.reference_material: Gd2O3
# Facility.name: NSLS-II
# Facility.energy: 3.0
# Facility.current: 400.8
# Facility.mode: top-off
# Facility.GUP: 123456
# Facility.SAF: 301027
# Facility.cycle: 2023-2
# Mono.name: Si(111)
# Mono.d_spacing: 3.1351860
# Mono.encoder_resolution: 0.0000050 deg/ct
# Mono.angle_offset: 16.0754326 deg
# Mono.scan_mode: pseudo channel cut
# Mono.scan_type: step
# Mono.direction: forward in energy
# Sample.name: Gd2Ti2O7
# Sample.prep: Powder in PEG pellet
# Sample.x: 149.848 mm
# Sample.y: 114.690 mm
# Sample.SDD_position: 205.000 mm
# Scan.experimenters: Bruce Ravel
# Scan.edge_energy: 8375.6
# Scan.start_time: 2023-05-08T21:51:02
# Scan.end_time: 2023-05-08T21:56:53
# Scan.transient_id: 75647
# Scan.uid: 7a7060ae-483c-4760-9457-d592e1e9397f
# Scan.plot_hint: ln(I0/It)  --  ln($5/$6)
# Column.1: energy eV
# Column.2: requested_energy eV
# Column.3: measurement_time seconds
# Column.4: xmu 
# Column.5: I0 nA
# Column.6: It nA
# Column.7: Ir nA
# ///////////
# sample courtesy Martin Stennett, University of Sheffield
# -----------
# energy  requested_energy  measurement_time  xmu  I0  It  Ir
  8175.604  8175.600  0.500  1.137634  135.811361  43.537944  11.163602
  8185.615  8185.600  0.500  1.133317  135.633501  43.669031  11.240208
  8195.634  8195.600  0.500  1.128371  135.471890  43.833255  11.334416
  8205.641  8205.600  0.500  1.122416  135.293154  44.036879  11.443601
  8215.647  8215.600  0.500  1.117337  135.102177  44.198656  11.541418
  8225.672  8225.600  0.500  1.112672  134.921508  44.345958  11.628372
  8235.641  8235.600  0.500  1.108471  134.706279  44.461600  11.701651
  8245.621  8245.600  0.500  1.103897  134.528003  44.606324  11.790186
  8255.646  8255.600  0.500  1.099018  134.342675  44.762717  11.886128
  8265.629  8265.600  0.500  1.093706  134.161903  44.940592  11.984140
  8275.619  8275.600  0.500  1.088501  133.980000  45.113857  12.076756
  8285.619  8285.600  0.500  1.083944  133.756446  45.244300  12.164639
  8295.618  8295.600  0.500  1.079382  133.572533  45.388693  12.249582
  8305.618  8305.600  0.500  1.074908  133.375889  45.525059  12.333465
  8315.616  8315.600  0.500  1.070402  133.189118  45.666662  12.420096
  8325.609  8325.600  0.500  1.065789  132.992428  45.810049  12.511774
  8335.621  8335.600  0.500  1.061179  132.585139  45.880781  12.585837
  8346.491  8345.600  0.500  1.056217  132.246945  45.991372  12.668046
  8347.579  8347.600  0.500  1.055530  132.187562  46.002308  12.677351
  8349.581  8349.600  0.500  1.054687  132.052229  45.993962  12.685517
  8351.581  8351.600  0.500  1.053750  131.871103  45.973942  12.688954
  8353.577  8353.600  0.500  1.052845  131.749127  45.973006  12.697615
  8355.585  8355.600  0.500  1.052066  131.737467  46.004764  12.715249
  8357.780  8357.600  0.500  1.051396  131.683390  46.016710  12.725642
  8359.901  8359.600  0.500  1.050331  131.644260  46.052047  12.740892
  8361.613  8361.600  0.500  1.049749  131.644660  46.079016  12.753181
  8363.586  8363.600  0.500  1.049216  131.619332  46.094680  12.763921
  8365.590  8365.600  0.500  1.048615  131.590401  46.112259  12.776651
  8366.080  8366.100  0.500  1.048631  131.580992  46.108214  12.777294
  8366.578  8366.600  0.500  1.048394  131.577105  46.117804  12.780984
  8367.082  8367.100  0.500  1.048137  131.561122  46.124074  12.785261
  8367.578  8367.600  0.500  1.047926  131.547927  46.129177  12.787252
  8368.082  8368.100  0.500  1.048008  131.536582  46.121406  12.788028
  8368.581  8368.600  0.500  1.048061  131.525954  46.115227  12.786028
  8369.079  8369.100  0.500  1.047915  131.520552  46.120050  12.788123
  8369.572  8369.600  0.500  1.047679  131.514151  46.128719  12.791841
  8370.077  8370.100  0.500  1.047617  131.503229  46.127715  12.791480
  8370.575  8370.600  0.500  1.047539  131.490639  46.126899  12.792303
  8371.083  8371.100  0.500  1.047804  131.486059  46.113090  12.787999
  8371.585  8371.600  0.500  1.047578  131.475443  46.119791  12.787911
  8372.081  8372.100  0.500  1.047555  131.466980  46.117876  12.786612
  8372.583  8372.600  0.500  1.047722  131.449499  46.104038  12.782419
  8373.085  8373.100  0.500  1.047567  131.438793  46.107430  12.779381
  8373.581  8373.600  0.500  1.047622  131.424723  46.099956  12.777108
  8374.083  8374.100  0.500  1.047727  131.415076  46.091744  12.772713
  8374.583  8374.600  0.500  1.047927  131.402777  46.078204  12.764949
  8375.082  8375.100  0.500  1.048203  131.396044  46.063143  12.754677
  8375.584  8375.600  0.500  1.048565  131.385236  46.042666  12.744756
  8376.084  8376.100  0.500  1.048835  131.367215  46.023919  12.730550
  8376.595  8376.600  0.500  1.049340  131.356706  45.997008  12.712344
  8377.098  8377.100  0.500  1.050163  131.355468  45.958736  12.688285
  8377.595  8377.600  0.500  1.051089  131.351590  45.914864  12.661233
  8378.097  8378.100  0.500  1.052118  131.338839  45.863175  12.629299
  8378.597  8378.600  0.500  1.053060  131.323321  45.814576  12.600808
  8379.097  8379.100  0.500  1.054081  131.310834  45.763467  12.574641
  8379.597  8379.600  0.500  1.055142  131.299324  45.710930  12.547127
  8380.094  8380.100  0.500  1.056046  131.282738  45.663874  12.519937
  8380.585  8380.600  0.500  1.057153  131.269434  45.608704  12.492763
  8381.085  8381.100  0.500  1.058247  131.251943  45.552782  12.462683
  8381.591  8381.600  0.500  1.059382  131.248765  45.500013  12.434394
  8382.088  8382.100  0.500  1.060476  131.230451  45.443938  12.406074
  8382.588  8382.600  0.500  1.061667  131.219096  45.385875  12.375435
  8383.098  8383.100  0.500  1.062855  131.201570  45.325944  12.345510
  8383.592  8383.600  0.500  1.064150  131.187799  45.262541  12.314708
  8384.095  8384.100  0.500  1.065443  131.169885  45.197897  12.283612
  8384.596  8384.600  0.500  1.066681  131.148834  45.134735  12.251385
  8385.099  8385.100  0.500  1.067980  131.137981  45.072396  12.217666
  8385.600  8385.600  0.500  1.069581  131.113792  44.992013  12.179815
  8386.098  8386.100  0.500  1.071090  131.095354  44.917843  12.140687
  8386.595  8386.600  0.500  1.072872  131.075435  44.831068  12.095368
  8387.093  8387.100  0.500  1.074669  131.062147  44.746009  12.048490
  8387.591  8387.600  0.500  1.076444  131.039174  44.658843  12.000185
  8388.095  8388.100  0.500  1.078501  131.014728  44.558749  11.947833
  8388.593  8388.600  0.500  1.080592  131.006973  44.463049  11.893766
  8389.103  8389.100  0.500  1.082925  130.983891  44.351638  11.837278
  8389.601  8389.600  0.500  1.085410  130.967305  44.235962  11.779646
  8390.099  8390.100  0.500  1.088013  130.967738  44.121112  11.728051
  8390.594  8390.600  0.500  1.090208  130.944479  44.016545  11.681697
  8391.096  8391.100  0.500  1.092309  130.930392  43.919441  11.644912
  8391.600  8391.600  0.500  1.093602  130.915864  43.857814  11.620421
  8392.092  8392.100  0.500  1.094709  130.905818  43.805929  11.601815
  8392.597  8392.600  0.500  1.095472  130.893418  43.768389  11.590501
  8393.095  8393.100  0.500  1.095752  130.876164  43.750332  11.588469
  8393.600  8393.600  0.500  1.095614  130.858370  43.750451  11.593108
  8394.099  8394.100  0.500  1.095086  130.851631  43.771282  11.602569
  8394.606  8394.600  0.500  1.094316  130.844898  43.802741  11.615667
  8395.099  8395.100  0.500  1.093136  130.826870  43.848447  11.629544
  8395.604  8395.600  0.500  1.092085  130.811605  43.889418  11.643985
  8396.103  8396.100  0.500  1.090900  130.795478  43.936050  11.659736
  8396.602  8396.600  0.500  1.089682  130.774626  43.982552  11.672511
  8397.101  8397.100  0.500  1.088686  130.776746  44.027105  11.685232
  8397.597  8397.600  0.500  1.087472  130.746926  44.070536  11.695757
  8398.096  8398.100  0.500  1.086194  130.726411  44.119964  11.709796
  8398.592  8398.600  0.500  1.084739  130.718918  44.181689  11.724934
  8399.091  8399.100  0.500  1.083489  130.713470  44.235084  11.740108
  8399.594  8399.600  0.500  1.082075  130.697670  44.292348  11.755064
  8400.099  8400.100  0.500  1.081143  130.688305  44.330463  11.766932
  8400.605  8400.600  0.500  1.079889  130.673310  44.380986  11.781732
  8401.595  8401.590  0.500  1.077866  130.646588  44.461784  11.807661
  8402.603  8402.590  0.500  1.076369  130.612235  44.516679  11.830589
  8403.621  8403.610  0.500  1.075764  130.606496  44.541651  11.852818
  8404.663  8404.660  0.500  1.075688  130.585376  44.537832  11.868564
  8405.727  8405.720  0.500  1.075936  130.559402  44.517925  11.886627
  8406.815  8406.800  0.500  1.076118  130.541207  44.503626  11.907677
  8407.906  8407.900  0.500  1.075689  130.519668  44.515405  11.937982
  8409.032  8409.020  0.500  1.075039  130.495256  44.535986  11.971110
  8410.166  8410.160  0.500  1.073448  130.457349  44.593977  12.012597
  8411.316  8411.310  0.500  1.071554  130.444811  44.674184  12.060120
  8412.497  8412.490  0.500  1.069879  130.408986  44.736787  12.096665
  8413.687  8413.680  0.500  1.068020  130.386070  44.812162  12.135407
  8414.902  8414.900  0.500  1.066042  130.352864  44.889453  12.169363
  8416.139  8416.130  0.500  1.064580  130.331457  44.947760  12.197373
  8417.391  8417.380  0.500  1.062995  130.297699  45.007395  12.224783
  8418.655  8418.650  0.500  1.061802  130.269295  45.051293  12.247036
  8419.948  8419.940  0.500  1.060927  130.238596  45.080106  12.260495
  8421.262  8421.250  0.500  1.060399  130.206293  45.092744  12.269624
  8422.595  8422.580  0.500  1.060196  130.178326  45.092214  12.273157
  8423.937  8423.930  0.500  1.060379  130.151663  45.074707  12.271689
  8425.310  8425.300  0.500  1.060696  130.121611  45.050021  12.266872
  8426.690  8426.680  0.500  1.061247  130.089783  45.014179  12.259457
  8428.095  8428.090  0.500  1.062015  130.061560  44.969879  12.249754
  8429.518  8429.510  0.500  1.062767  130.030109  44.925222  12.238728
  8430.960  8430.950  0.500  1.063577  129.994892  44.876677  12.224142
  8432.421  8432.410  0.500  1.064196  129.961710  44.837435  12.213857
  8433.898  8433.890  0.500  1.064491  129.924205  44.811311  12.204213
  8435.394  8435.390  0.500  1.063986  129.902137  44.826330  12.207720
  8436.921  8436.910  0.500  1.063277  129.871162  44.847406  12.211101
  8438.460  8438.450  0.500  1.062208  129.824875  44.879374  12.217673
  8440.012  8440.010  0.500  1.060783  129.787926  44.930607  12.226364
  8441.593  8441.580  0.500  1.059195  129.748127  44.988197  12.238145
  8443.183  8443.180  0.500  1.057872  129.712692  45.035439  12.248295
  8444.798  8444.790  0.500  1.056652  129.670129  45.075625  12.261327
  8446.445  8446.430  0.500  1.055607  129.627744  45.108026  12.275557
  8448.092  8448.080  0.500  1.054704  129.580175  45.132203  12.288059
  8449.752  8449.750  0.500  1.053976  129.539750  45.150964  12.302841
  8451.453  8451.440  0.500  1.053217  129.501156  45.171803  12.323291
  8453.154  8453.150  0.500  1.052682  129.463907  45.182973  12.342796
  8454.896  8454.880  0.500  1.051942  129.416825  45.199978  12.365511
  8456.648  8456.630  0.500  1.051227  129.376653  45.218248  12.391381
  8458.404  8458.390  0.500  1.050671  129.337084  45.229589  12.411666
  8460.188  8460.180  0.500  1.049773  129.289373  45.253497  12.433687
  8462.001  8461.980  0.500  1.048949  129.246728  45.275857  12.454021
  8463.820  8463.810  0.500  1.048256  129.200968  45.291193  12.468609
  8465.662  8465.650  0.500  1.047618  129.157423  45.304848  12.484399
  8467.523  8467.510  0.500  1.046539  129.111680  45.337700  12.500652
  8469.391  8469.390  0.500  1.045595  129.068026  45.365188  12.514847
  8471.303  8471.290  0.500  1.044595  129.015584  45.392116  12.527856
  8473.213  8473.210  0.500  1.043493  129.283624  45.536546  12.574741
  8475.167  8475.150  0.500  1.042371  129.435297  45.641158  12.613581
  8477.128  8477.110  0.500  1.041563  129.389522  45.661888  12.630522
  8479.090  8479.080  0.500  1.040892  129.340260  45.675182  12.648117
  8481.090  8481.080  0.500  1.039602  129.285117  45.714628  12.671711
  8483.100  8483.090  0.500  1.038485  129.241816  45.750366  12.696191
  8485.133  8485.120  0.500  1.037286  129.190749  45.787163  12.723670
  8487.200  8487.180  0.500  1.036095  129.139999  45.823718  12.746195
  8489.257  8489.250  0.500  1.035264  129.101056  45.848008  12.768165
  8491.354  8491.340  0.500  1.034397  129.045736  45.868119  12.788815
  8493.456  8493.450  0.500  1.033489  128.977421  45.885447  12.804723
  8495.606  8495.580  0.500  1.032377  128.931491  45.920153  12.825830
  8497.731  8497.720  0.500  1.031456  128.881184  45.944548  12.842334
  8499.908  8499.890  0.500  1.030765  128.814938  45.952673  12.853772
  8502.098  8502.080  0.500  1.030091  128.771263  45.968067  12.865605
  8504.298  8504.280  0.500  1.029394  128.719093  45.981454  12.875784
  8506.509  8506.500  0.500  1.028785  128.659844  45.988322  12.881790
  8508.759  8508.750  0.500  1.027918  128.603007  46.007878  12.892183
  8511.028  8511.010  0.500  1.026843  128.540439  46.034937  12.902383
  8513.299  8513.290  0.500  1.025754  128.469677  46.059718  12.920577
  8515.611  8515.590  0.500  1.024646  128.397532  46.084911  12.938309
  8517.924  8517.910  0.500  1.023396  128.333187  46.119408  12.959902
  8520.264  8520.250  0.500  1.022162  128.253652  46.147755  12.981105
  8522.615  8522.600  0.500  1.021036  128.157257  46.165028  12.997672
  8524.991  8524.980  0.500  1.019984  128.006417  46.159222  13.006074
  8527.382  8527.370  0.500  1.018824  127.586318  46.061135  12.991402
  8529.799  8529.790  0.500  1.017903  120.882924  43.681288  12.332550
  8532.233  8532.220  0.500  1.016194  123.622820  44.747741  12.647719
  8534.684  8534.670  0.500  1.015263  127.744247  46.282659  13.100005
  8537.174  8537.150  0.500  1.014376  127.878461  46.372405  13.144228
  8539.650  8539.640  0.500  1.013230  127.850794  46.415530  13.173350
  8542.168  8542.150  0.500  1.012253  127.799186  46.442120  13.196510
  8544.678  8544.670  0.500  1.011097  127.737608  46.473470  13.221015
  8547.237  8547.220  0.500  1.010248  127.671665  46.488912  13.238356
  8549.801  8549.790  0.500  1.009319  127.600023  46.506028  13.250879
  8552.382  8552.370  0.500  1.008425  127.543493  46.526968  13.266728
  8554.983  8554.980  0.500  1.007559  127.484933  46.545913  13.282990
  8557.608  8557.600  0.500  1.006589  127.405984  46.562236  13.297607
  8560.263  8560.250  0.500  1.005475  127.334509  46.587957  13.317929
  8562.916  8562.910  0.500  1.004344  127.265358  46.615393  13.339779
  8565.609  8565.590  0.500  1.003048  127.183945  46.645951  13.359269
  8568.297  8568.290  0.500  1.001705  127.115945  46.683693  13.386503
  8571.022  8571.010  0.500  1.000304  127.038146  46.720528  13.412060
  8573.755  8573.750  0.500  0.999078  126.962429  46.749959  13.438252
  8576.512  8576.500  0.500  0.997706  126.868870  46.779636  13.463177
  8579.289  8579.280  0.500  0.996575  126.776206  46.798372  13.485820
  8582.082  8582.070  0.500  0.995275  126.678353  46.823075  13.509353
  8584.907  8584.890  0.500  0.994355  126.558519  46.821858  13.527138
  8587.728  8587.720  0.500  0.992911  126.358427  46.815388  13.540922
  8590.590  8590.570  0.500  0.991375  125.517905  46.575445  13.486841
  8593.449  8593.450  0.500  0.989773  110.482633  41.062076  11.902341
  8596.353  8596.340  0.500  0.989037  125.628533  46.725602  13.557420
  8599.258  8599.250  0.500  0.987768  125.977715  46.914958  13.622378
  8602.187  8602.170  0.500  0.986798  125.898478  46.930981  13.639793
  8605.131  8605.120  0.500  0.985730  125.726524  46.916965  13.649151
  8608.097  8608.090  0.500  0.984445  125.483555  46.886494  13.653317
  8611.080  8611.070  0.500  0.983326  125.017719  46.764751  13.632214
  8614.094  8614.080  0.500  0.982211  123.760317  46.346037  13.525680
  8617.117  8617.100  0.500  0.981556  108.776448  40.761543  11.910849
  8620.161  8620.150  0.500  0.979566  126.283272  47.416071  13.867270
  8623.227  8623.210  0.500  0.978334  126.804759  47.670600  13.959258
  8626.298  8626.290  0.500  0.977084  126.487196  47.610670  13.958359
  8629.409  8629.390  0.500  0.975666  126.252329  47.589718  13.968547
  8632.520  8632.510  0.500  0.974250  126.054770  47.582574  13.983547
  8635.658  8635.650  0.500  0.972733  125.854378  47.579034  13.998799
  8638.819  8638.800  0.500  0.971275  125.523908  47.523366  14.001819
  8641.997  8641.980  0.500  0.970055  121.678122  46.123583  13.606542
  8645.191  8645.170  0.500  0.968292  122.912672  46.673749  13.785468
  8648.410  8648.390  0.500  0.967272  125.323181  47.637647  14.088245
  8651.641  8651.620  0.500  0.966094  125.363864  47.709298  14.127403
  8654.893  8654.870  0.500  0.964847  125.285222  47.738874  14.155088
  8658.158  8658.150  0.500  0.963581  125.211049  47.771063  14.182654
  8661.458  8661.440  0.500  0.962234  125.126573  47.803174  14.208236
  8664.770  8664.750  0.500  0.960932  125.045186  47.834311  14.233387
  8668.091  8668.070  0.500  0.959293  124.954666  47.878084  14.260120
  8671.440  8671.420  0.500  0.958032  124.874180  47.907639  14.288071
  8674.805  8674.790  0.500  0.956576  124.782827  47.942312  14.319276
  8678.195  8678.170  0.500  0.955185  124.689486  47.973154  14.345305
  8681.605  8681.580  0.500  0.953832  124.605968  48.005907  14.374710
  8685.017  8685.000  0.500  0.952299  124.501420  48.039252  14.404427
  8688.487  8688.450  0.500  0.950581  124.406902  48.085325  14.438468
  8691.927  8691.910  0.500  0.949290  124.282946  48.099456  14.461358
  8695.406  8695.390  0.500  0.947850  124.169709  48.124892  14.488267
  8698.917  8698.890  0.500  0.946264  124.009416  48.139040  14.510432
  8702.424  8702.410  0.500  0.944749  123.725403  48.101593  14.517273
  8705.967  8705.950  0.500  0.943462  121.831794  47.426422  14.330099
  8709.526  8709.500  0.500  0.941545  121.265767  47.296669  14.307887
  8713.098  8713.080  0.500  0.940216  123.774319  48.339264  14.641606
  8716.698  8716.680  0.500  0.938915  123.752372  48.393604  14.678580
  8720.312  8720.290  0.500  0.937491  123.658699  48.425893  14.704574
  8723.935  8723.920  0.500  0.936112  123.568656  48.457410  14.734209
  8727.608  8727.580  0.500  0.934791  123.459832  48.478694  14.759360
  8731.267  8731.250  0.500  0.933226  123.360417  48.515522  14.788557
  8734.958  8734.940  0.500  0.931779  123.263940  48.547782  14.815867
  8738.673  8738.650  0.500  0.930285  123.181223  48.587763  14.850112
  8742.400  8742.380  0.500  0.929106  123.078364  48.604474  14.873103
  8746.138  8746.120  0.500  0.927446  122.969961  48.642338  14.907175
  8749.908  8749.890  0.500  0.925864  122.873109  48.680958  14.940483
  8753.699  8753.680  0.500  0.924132  122.775589  48.726672  14.975873
  8757.502  8757.480  0.500  0.922599  122.681691  48.764072  15.008027
  8761.329  8761.310  0.500  0.920925  122.566180  48.799777  15.041534
  8765.172  8765.150  0.500  0.919367  122.469611  48.837379  15.075041
  8769.029  8769.010  0.500  0.917660  122.369552  48.880862  15.111064
  8772.906  8772.890  0.500  0.916168  122.241617  48.902650  15.137577
  8776.813  8776.790  0.500  0.914495  122.155105  48.949877  15.173016
  8780.730  8780.710  0.500  0.913126  122.056789  48.977463  15.204585
  8784.657  8784.650  0.500  0.911546  121.943351  49.009337  15.236661
  8788.627  8788.610  0.500  0.909881  121.824829  49.043260  15.268256
  8792.605  8792.580  0.500  0.908345  121.706364  49.070892  15.297856
  8796.597  8796.580  0.500  0.906740  121.593586  49.104170  15.329815
  8800.602  8800.590  0.500  0.905083  121.503780  49.149274  15.365748
  8804.651  8804.630  0.500  0.903565  121.388061  49.177077  15.394296
  8808.703  8808.680  0.500  0.902244  121.290389  49.202450  15.422521
  8812.773  8812.750  0.500  0.900465  121.177061  49.244005  15.456219
  8816.857  8816.840  0.500  0.898852  121.055159  49.273866  15.485630
  8820.975  8820.950  0.500  0.897503  120.957687  49.300678  15.515747
  8825.100  8825.080  0.500  0.895767  120.843774  49.339820  15.552126
  8829.249  8829.230  0.500  0.894162  120.734764  49.374508  15.587061
  8833.409  8833.390  0.500  0.892310  120.624607  49.420889  15.622557
  8837.603  8837.580  0.500  0.890606  120.514496  49.460007  15.659916
  8841.804  8841.780  0.500  0.888876  120.401097  49.499010  15.692903
  8846.030  8846.010  0.500  0.887296  120.288251  49.530807  15.728658
  8850.264  8850.250  0.500  0.885556  120.152797  49.561201  15.761305
  8854.532  8854.510  0.500  0.883956  120.052497  49.599103  15.797625
  8858.811  8858.790  0.500  0.882305  119.916343  49.624741  15.828583
  8863.111  8863.090  0.500  0.880517  119.806693  49.668066  15.867350
  8867.428  8867.410  0.500  0.878914  119.682584  49.696249  15.898751
  8871.774  8871.750  0.500  0.877347  119.571990  49.728171  15.936827
  8876.125  8876.110  0.500  0.875490  119.452081  49.770624  15.970876
  8880.510  8880.490  0.500  0.873956  119.318744  49.791396  16.003440
  8884.896  8884.880  0.500  0.872306  119.199349  49.823710  16.035132
  8889.314  8889.300  0.500  0.870662  119.077505  49.854705  16.067581
  8893.757  8893.730  0.500  0.868973  118.948078  49.884692  16.100085
  8898.201  8898.180  0.500  0.867319  118.815154  49.911436  16.131788
  8902.670  8902.650  0.500  0.865712  118.680883  49.935205  16.164302
  8907.157  8907.140  0.500  0.863938  118.508807  49.951342  16.194592
  8911.676  8911.650  0.500  0.862070  118.022049  49.839177  16.183521
  8916.203  8916.180  0.500  0.860236  118.236595  50.021448  16.266540
  8920.756  8920.730  0.500  0.858530  118.220606  50.100077  16.319974
