# XDI/1.0 BlueSky/1.10.0 BMM/2023-1.0-py310-tiled
# Beamline.name: BMM (06BM) -- Beamline for Materials Measurement (NIST)
# Beamline.xray_source: NSLS-II three-pole wiggler
# Beamline.collimation: paraboloid mirror, 5 nm Rh on 30 nm Pt
# Beamline.focusing: not in use
# Beamline.harmonic_rejection: flat mirror, Pt stripe, pitch = 7.0 mrad relative to beam
# Beamline.software: Bluesky 1.10.0, Ophyd 1.7.0, DataBroker 2.0.0b13, Python 3.10.8, 2023-1.0-py310-tiled
# Detector.I0: 10 cm N2
# Detector.I1: 25 cm N2
# Detector.I2: 25 cm N2
# Element.symbol: Br
# Element.edge: K
# Element.reference: Br
# Element.reference_material: bromophenol blue
# Facility.name: NSLS-II
# Facility.energy: 3.0
# Facility.current: 400.8
# Facility.mode: top-off
# Facility.GUP: 301027
# Facility.SAF: 310583
# Facility.cycle: 2023-2
# Mono.name: Si(111)
# Mono.d_spacing: 3.1351860
# Mono.encoder_resolution: 0.0000050 deg/ct
# Mono.angle_offset: 16.0754326 deg
# Mono.scan_mode: pseudo channel cut
# Mono.scan_type: step
# Mono.direction: forward in energy
# Sample.name: C19H10Br4O5S
# Sample.prep: powder on Kapton tape
# Sample.x: 109.138 mm
# Sample.y: 153.150 mm
# Sample.SDD_position: 205.000 mm
# Scan.experimenters: Bruce Ravel
# Scan.edge_energy: 13473.7
# Scan.start_time: 2023-05-28T20:55:12
# Scan.end_time: 2023-05-28T21:03:11
# Scan.transient_id: 79008
# Scan.uid: 7f5eb8b4-2991-42f8-9e27-86db1128e904
# Scan.plot_hint: ln(It/Ir)  --  ln($6/$7)
# Column.1: energy eV
# Column.2: requested_energy eV
# Column.3: measurement_time seconds
# Column.4: xmu 
# Column.5: I0 nA
# Column.6: It nA
# Column.7: Ir nA
# ///////////
# sample courtesy Alesandra Leri, Marymount Manhatten College
# -----------
# energy  requested_energy  measurement_time  xmu  I0  It  Ir
  13273.667  13273.700  0.500  0.521666  42.383320  74.604941  44.280318
  13283.701  13283.700  0.500  0.520498  42.247888  74.380606  44.198797
  13293.743  13293.700  0.500  0.519446  42.100695  74.135786  44.099677
  13303.747  13303.700  0.500  0.518428  41.964552  73.923833  44.018390
  13313.796  13313.700  0.500  0.517354  41.959417  73.925345  44.066562
  13323.691  13323.700  0.500  0.516355  41.809712  73.676967  43.962416
  13333.693  13333.700  0.500  0.515328  41.711863  73.520462  43.914128
  13343.680  13343.700  0.500  0.514182  41.655251  73.439824  43.916235
  13353.713  13353.700  0.500  0.513311  41.607806  73.370342  43.912944
  13363.714  13363.700  0.500  0.512238  41.509847  73.212758  43.865656
  13373.715  13373.700  0.500  0.511314  41.391065  73.022299  43.792001
  13383.723  13383.700  0.500  0.510418  41.293965  72.866020  43.737428
  13393.707  13393.700  0.500  0.509602  41.227592  72.765850  43.712973
  13403.714  13403.700  0.500  0.508955  41.160894  72.666816  43.681741
  13413.721  13413.700  0.500  0.508323  41.114248  72.593199  43.665075
  13423.735  13423.700  0.500  0.507946  40.995079  72.408980  43.570655
  13433.740  13433.700  0.500  0.507979  40.878822  72.216827  43.453620
  13443.705  13443.700  0.500  0.508849  40.802601  72.095943  43.343174
  13445.670  13445.700  0.500  0.509139  40.788696  72.073435  43.317054
  13447.683  13447.700  0.500  0.509572  40.767578  72.038561  43.277337
  13449.680  13449.700  0.500  0.510128  40.733241  71.989288  43.223734
  13451.663  13451.700  0.500  0.510822  40.743103  72.013066  43.208008
  13453.677  13453.700  0.500  0.511573  40.735480  71.992995  43.163525
  13455.669  13455.700  0.500  0.512710  40.697896  71.931348  43.077542
  13457.669  13457.700  0.500  0.514139  40.703963  71.943292  43.023175
  13459.685  13459.700  0.500  0.515939  40.663876  71.875109  42.905112
  13461.687  13461.700  0.500  0.518322  40.647198  71.852504  42.789540
  13463.665  13463.700  0.500  0.521761  40.626118  71.813887  42.619699
  13463.965  13464.000  0.500  0.522278  40.610113  71.792825  42.585179
  13464.250  13464.300  0.500  0.523051  40.609887  71.794773  42.553460
  13464.535  13464.600  0.500  0.523612  40.612497  71.787372  42.525181
  13464.844  13464.900  0.500  0.524247  40.613425  71.791843  42.500822
  13465.152  13465.200  0.500  0.525150  40.618177  71.798943  42.466659
  13465.437  13465.500  0.500  0.525946  40.607933  71.786449  42.425512
  13465.738  13465.800  0.500  0.526783  40.616050  71.802247  42.399320
  13466.071  13466.100  0.500  0.527806  40.598961  71.779155  42.342371
  13466.356  13466.400  0.500  0.528729  40.597947  71.769179  42.297409
  13466.657  13466.700  0.500  0.529840  40.586677  71.748680  42.238394
  13466.957  13467.000  0.500  0.531050  40.574539  71.729550  42.176044
  13467.258  13467.300  0.500  0.532437  40.579376  71.744989  42.126658
  13467.559  13467.600  0.500  0.533722  40.570112  71.730490  42.064063
  13467.868  13467.900  0.500  0.535252  40.582788  71.746643  42.009230
  13468.185  13468.200  0.500  0.536947  40.579006  71.736846  41.932359
  13468.462  13468.500  0.500  0.538652  40.537254  71.669364  41.821553
  13468.771  13468.800  0.500  0.540526  40.590621  71.760450  41.796280
  13469.088  13469.100  0.500  0.542841  40.575139  71.730768  41.682401
  13469.381  13469.400  0.500  0.545140  40.544474  71.683293  41.559154
  13469.682  13469.700  0.500  0.547623  40.544827  71.686011  41.457640
  13469.983  13470.000  0.500  0.550699  40.544881  71.684711  41.329593
  13470.291  13470.300  0.500  0.553786  40.514207  71.628995  41.170151
  13470.577  13470.600  0.500  0.557104  40.523090  71.647860  41.044585
  13470.893  13470.900  0.500  0.561033  40.492614  71.591804  40.851662
  13471.195  13471.200  0.500  0.565632  40.498839  71.599502  40.668596
  13471.496  13471.500  0.500  0.570662  40.484645  71.584869  40.456262
  13471.773  13471.800  0.500  0.576135  40.507957  71.627127  40.259215
  13472.106  13472.100  0.500  0.583343  40.531063  71.668879  39.993354
  13472.399  13472.400  0.500  0.591039  40.498891  71.608161  39.653125
  13472.692  13472.700  0.500  0.599968  40.496332  71.601472  39.296964
  13472.985  13473.000  0.500  0.610636  40.508067  71.624966  38.892756
  13473.302  13473.300  0.500  0.624340  40.505983  71.617355  38.359316
  13473.572  13473.600  0.500  0.639295  40.501398  71.619646  37.791148
  13473.897  13473.900  0.500  0.660254  40.509753  71.629265  37.012296
  13474.198  13474.200  0.500  0.684421  40.510449  71.631931  36.129881
  13474.475  13474.500  0.500  0.712904  40.489509  71.596605  35.097994
  13474.784  13474.800  0.500  0.750951  40.490651  71.599082  33.788857
  13475.093  13475.100  0.500  0.797454  40.519702  71.650118  32.276539
  13475.371  13475.400  0.500  0.848691  40.481734  71.589147  30.638357
  13475.696  13475.700  0.500  0.917635  40.473277  71.580037  28.593564
  13475.981  13476.000  0.500  0.986885  40.473194  71.588479  26.683597
  13476.267  13476.300  0.500  1.060880  40.456873  71.538604  24.763163
  13476.584  13476.600  0.500  1.133572  40.449370  71.532357  23.024943
  13476.861  13476.900  0.500  1.194326  40.464152  71.562298  21.676791
  13477.171  13477.200  0.500  1.241487  40.425363  71.499428  20.660068
  13477.496  13477.500  0.500  1.265649  40.410325  71.468425  20.158112
  13477.789  13477.800  0.500  1.265079  40.400798  71.449660  20.164299
  13478.106  13478.100  0.500  1.243963  40.393396  71.438556  20.591429
  13478.400  13478.400  0.500  1.212620  40.386070  71.437224  21.246647
  13478.701  13478.700  0.500  1.176261  40.386105  71.435203  22.032741
  13479.019  13479.000  0.500  1.138800  40.395969  71.449758  22.878437
  13479.296  13479.300  0.500  1.110863  40.417495  71.489875  23.539813
  13479.590  13479.600  0.500  1.090073  40.415662  71.484011  24.032345
  13479.907  13479.900  0.500  1.077785  40.386350  71.428457  24.310583
  13480.193  13480.200  0.500  1.075005  40.380957  71.416016  24.374011
  13480.518  13480.500  0.500  1.080443  40.376546  71.425996  24.245204
  13480.795  13480.800  0.500  1.091930  40.297536  71.274328  23.917408
  13481.097  13481.100  0.500  1.109427  40.257887  71.200865  23.478321
  13481.422  13481.400  0.500  1.132326  40.187807  71.092295  22.911825
  13481.700  13481.700  0.500  1.155315  40.148839  71.018696  22.367920
  13482.002  13482.000  0.500  1.180994  40.137207  70.997520  21.794360
  13482.295  13482.300  0.500  1.205969  40.117467  70.961021  21.245857
  13482.597  13482.600  0.500  1.229431  40.145819  71.010578  20.767684
  13482.906  13482.900  0.500  1.250774  40.193287  71.098597  20.354336
  13483.176  13483.200  0.500  1.266451  40.241180  71.179380  20.060488
  13483.501  13483.500  0.500  1.280902  40.271605  71.234654  19.788032
  13483.795  13483.800  0.500  1.290743  40.321070  71.325126  19.619149
  13484.089  13484.100  0.500  1.296979  40.352149  71.382212  19.512791
  13484.398  13484.400  0.500  1.300840  40.331234  71.340419  19.426212
  13484.676  13484.700  0.500  1.301927  40.333481  71.345708  19.406537
  13484.994  13485.000  0.500  1.301014  40.323771  71.326729  19.419108
  13485.272  13485.300  0.500  1.298270  40.328115  71.338138  19.475567
  13485.581  13485.600  0.500  1.294145  40.331576  71.346574  19.558383
  13485.899  13485.900  0.500  1.288199  40.350237  71.375675  19.683061
  13486.201  13486.200  0.500  1.281674  40.359924  71.401340  19.819037
  13486.510  13486.500  0.500  1.273443  40.365003  71.411158  19.985580
  13486.788  13486.800  0.500  1.265529  40.391098  71.447290  20.154568
  13487.098  13487.100  0.500  1.256109  40.348108  71.379491  20.326015
  13487.392  13487.400  0.500  1.246763  40.355111  71.388356  20.519413
  13487.694  13487.700  0.500  1.237846  40.353977  71.392045  20.704284
  13488.019  13488.000  0.500  1.227992  40.345751  71.373512  20.903891
  13488.305  13488.300  0.500  1.220099  40.366731  71.412579  21.081054
  13488.607  13488.600  0.500  1.212139  40.346210  71.376880  21.238923
  13488.909  13488.900  0.500  1.204787  40.358539  71.395646  21.401260
  13489.187  13489.200  0.500  1.198554  40.322179  71.332117  21.515904
  13489.528  13489.500  0.500  1.192227  40.338856  71.365660  21.662652
  13489.799  13489.800  0.500  1.187434  40.337320  71.361015  21.765314
  13490.100  13490.100  0.500  1.182685  40.351295  71.384510  21.876128
  13490.410  13490.400  0.500  1.178404  40.333743  71.359520  21.962287
  13490.696  13490.700  0.500  1.174960  40.315609  71.326455  22.027844
  13491.022  13491.000  0.500  1.171574  40.314632  71.327939  22.103014
  13491.300  13491.300  0.500  1.169072  40.304304  71.306622  22.151767
  13491.602  13491.600  0.500  1.166908  40.290245  71.283519  22.192555
  13491.888  13491.900  0.500  1.165426  40.281893  71.268389  22.220759
  13492.182  13492.200  0.500  1.164400  40.269309  71.242121  22.235371
  13492.508  13492.500  0.500  1.163948  40.259739  71.225501  22.240225
  13492.786  13492.800  0.500  1.164132  40.259226  71.221863  22.235001
  13493.088  13493.100  0.500  1.164989  40.252132  71.211477  22.212716
  13493.375  13493.400  0.500  1.165989  40.249820  71.209364  22.189853
  13493.692  13493.700  0.500  1.167694  40.260675  71.230290  22.158575
  13493.995  13494.000  0.500  1.169513  40.257164  71.218589  22.114661
  13494.297  13494.300  0.500  1.171488  40.238819  71.194879  22.063674
  13494.607  13494.600  0.500  1.173630  40.245582  71.211633  22.021648
  13494.901  13494.900  0.500  1.175795  40.228255  71.178712  21.963860
  13495.203  13495.200  0.500  1.177919  40.256977  71.218033  21.929378
  13495.513  13495.500  0.500  1.179817  40.259561  71.227341  21.890649
  13495.807  13495.800  0.500  1.181590  40.254648  71.219517  21.849472
  13496.109  13496.100  0.500  1.183382  40.249524  71.219605  21.810378
  13496.412  13496.400  0.500  1.184822  40.252992  71.224594  21.780532
  13496.714  13496.700  0.500  1.186232  40.249974  71.222171  21.749086
  13497.016  13497.000  0.500  1.187459  40.227562  71.183235  21.710540
  13497.310  13497.300  0.500  1.188459  40.238845  71.198830  21.693611
  13497.605  13497.600  0.500  1.189118  40.241046  71.204386  21.681006
  13497.907  13497.900  0.500  1.189737  40.236723  71.197403  21.665471
  13498.193  13498.200  0.500  1.190175  40.244317  71.213626  21.660909
  13498.519  13498.500  0.500  1.190306  40.191682  71.120706  21.629807
  13498.702  13498.700  0.500  1.190283  40.195714  71.124893  21.631590
  13499.705  13499.690  0.500  1.188036  40.185432  71.099599  21.672523
  13500.715  13500.690  0.500  1.182709  40.208960  71.152943  21.804638
  13501.686  13501.710  0.500  1.175118  40.208229  71.150806  21.970130
  13502.769  13502.760  0.500  1.165833  40.166954  71.076315  22.151853
  13503.835  13503.820  0.500  1.157895  40.154358  71.058483  22.322782
  13504.918  13504.900  0.500  1.151347  40.160597  71.064185  22.471242
  13506.009  13506.000  0.500  1.146621  40.171657  71.086551  22.584799
  13507.124  13507.120  0.500  1.143047  40.236098  71.211696  22.705560
  13508.247  13508.260  0.500  1.140699  40.243646  71.217169  22.760679
  13509.403  13509.410  0.500  1.139741  40.221800  71.184700  22.772116
  13510.622  13510.590  0.500  1.140598  40.211749  71.172055  22.748569
  13511.793  13511.780  0.500  1.143217  40.199599  71.152714  22.682893
  13513.021  13513.000  0.500  1.147797  40.192957  71.140704  22.575433
  13514.257  13514.230  0.500  1.154155  40.178550  71.116568  22.424745
  13515.485  13515.480  0.500  1.161705  40.164841  71.090860  22.248036
  13516.745  13516.750  0.500  1.169368  40.173243  71.111334  22.084555
  13518.045  13518.040  0.500  1.176020  40.135724  71.053181  21.920191
  13519.378  13519.350  0.500  1.181089  40.116964  71.017448  21.798411
  13520.719  13520.680  0.500  1.183564  40.116947  71.018659  21.744885
  13522.052  13522.030  0.500  1.184344  40.083037  70.963319  21.711010
  13523.401  13523.400  0.500  1.183291  40.071142  70.941589  21.727210
  13524.782  13524.780  0.500  1.181242  40.087560  70.977284  21.782738
  13526.188  13526.190  0.500  1.178372  40.038029  70.888480  21.818021
  13527.642  13527.610  0.500  1.175348  40.021664  70.861438  21.875733
  13529.080  13529.050  0.500  1.172372  40.034595  70.885457  21.948370
  13530.519  13530.510  0.500  1.169528  40.001753  70.833792  21.994838
  13531.982  13531.990  0.500  1.166830  40.009284  70.835995  22.054965
  13533.477  13533.490  0.500  1.164548  39.969082  70.775631  22.086507
  13535.005  13535.010  0.500  1.162568  39.957948  70.754117  22.123551
  13536.565  13536.550  0.500  1.161056  39.870916  70.602199  22.109465
  13538.125  13538.110  0.500  1.159676  39.340921  69.675306  21.849322
  13539.677  13539.680  0.500  1.158165  39.220205  69.457070  21.813834
  13541.254  13541.280  0.500  1.157174  39.804190  70.495525  22.161922
  13542.896  13542.890  0.500  1.156299  39.924310  70.704274  22.246990
  13544.514  13544.530  0.500  1.155924  39.923014  70.708523  22.256688
  13546.196  13546.180  0.500  1.155420  39.889984  70.657889  22.251960
  13547.830  13547.850  0.500  1.155056  39.907608  70.683756  22.268210
  13549.530  13549.540  0.500  1.154374  39.851253  70.586830  22.252838
  13551.221  13551.250  0.500  1.153633  39.840671  70.576963  22.266230
  13552.953  13552.980  0.500  1.152524  39.804958  70.510118  22.269822
  13554.726  13554.730  0.500  1.151372  39.750058  70.420759  22.267233
  13556.467  13556.490  0.500  1.150034  39.447122  69.887064  22.128060
  13558.240  13558.280  0.500  1.148293  39.194709  69.440213  22.024896
  13560.039  13560.080  0.500  1.146560  39.752153  70.431606  22.378077
  13561.901  13561.910  0.500  1.144723  39.771045  70.468895  22.431105
  13563.741  13563.750  0.500  1.142714  39.778972  70.482205  22.480449
  13565.605  13565.610  0.500  1.140746  39.678437  70.301463  22.466973
  13567.565  13567.490  0.500  1.139116  39.550601  70.083120  22.433740
  13569.712  13569.390  0.500  1.137821  39.698579  70.348780  22.547945
  13571.248  13571.310  0.500  1.137052  39.635417  70.240397  22.530546
  13573.242  13573.250  0.500  1.136434  39.554305  70.100206  22.499474
  13575.254  13575.210  0.500  1.135889  38.961702  69.057627  22.176915
  13577.274  13577.180  0.500  1.135628  39.455883  69.927183  22.462036
  13579.149  13579.180  0.500  1.135704  39.617381  70.220745  22.554617
  13581.146  13581.190  0.500  1.135907  39.619403  70.228428  22.552516
  13583.160  13583.220  0.500  1.135960  39.581289  70.166491  22.531425
  13585.231  13585.280  0.500  1.135909  39.551870  70.110420  22.514569
  13587.302  13587.350  0.500  1.135829  39.525628  70.062179  22.500871
  13589.398  13589.440  0.500  1.135659  39.488735  70.006317  22.486758
  13591.503  13591.550  0.500  1.135368  39.393457  69.844148  22.441193
  13593.641  13593.680  0.500  1.134650  39.088011  69.305833  22.284219
  13595.772  13595.820  0.500  1.133882  38.805530  68.799940  22.138555
  13597.943  13597.990  0.500  1.132964  39.421437  69.897124  22.512261
  13600.148  13600.180  0.500  1.132145  39.429832  69.916256  22.536872
  13602.353  13602.380  0.500  1.131280  39.409203  69.888433  22.547420
  13604.591  13604.600  0.500  1.130776  39.359539  69.801249  22.530629
  13606.830  13606.850  0.500  1.130563  39.355438  69.797083  22.534092
  13609.086  13609.110  0.500  1.130649  39.353062  69.790763  22.530102
  13611.351  13611.390  0.500  1.131281  39.313191  69.730393  22.496400
  13613.641  13613.690  0.500  1.132034  39.283845  69.675573  22.461791
  13615.996  13616.010  0.500  1.132746  39.310625  69.723608  22.461276
  13618.320  13618.350  0.500  1.133642  39.244962  69.613638  22.405781
  13620.693  13620.700  0.500  1.134132  39.224369  69.579304  22.383741
  13623.067  13623.080  0.500  1.134600  39.208247  69.558952  22.366741
  13625.450  13625.470  0.500  1.134606  39.191835  69.528873  22.356934
  13627.858  13627.890  0.500  1.134438  39.182587  69.518448  22.357334
  13630.292  13630.320  0.500  1.133546  39.143693  69.446553  22.354145
  13632.759  13632.770  0.500  1.132593  39.128892  69.428577  22.369656
  13635.234  13635.250  0.500  1.131153  39.112697  69.402656  22.393532
  13637.727  13637.740  0.500  1.129610  39.091905  69.369036  22.417251
  13640.262  13640.250  0.500  1.128012  39.063191  69.325100  22.438872
  13642.748  13642.770  0.500  1.126537  39.034007  69.276341  22.456200
  13645.285  13645.320  0.500  1.125151  39.032418  69.280918  22.488832
  13647.887  13647.890  0.500  1.123936  38.997145  69.214543  22.494603
  13650.474  13650.470  0.500  1.122915  38.945466  69.124825  22.488384
  13653.086  13653.080  0.500  1.121901  38.674829  68.656317  22.358619
  13655.716  13655.700  0.500  1.121083  38.947723  69.145605  22.536394
  13658.339  13658.350  0.500  1.120147  38.939501  69.136961  22.554672
  13660.979  13661.010  0.500  1.119031  38.890190  69.040105  22.548224
  13663.677  13663.690  0.500  1.118064  38.870456  69.014241  22.561594
  13666.392  13666.390  0.500  1.116807  38.846694  68.983243  22.579824
  13669.117  13669.110  0.500  1.115680  38.836178  68.968059  22.600311
  13671.859  13671.850  0.500  1.114778  38.805800  68.913915  22.602932
  13674.594  13674.600  0.500  1.113729  38.785739  68.889266  22.618578
  13677.380  13677.380  0.500  1.112882  38.787473  68.885733  22.636572
  13680.174  13680.170  0.500  1.112169  38.728676  68.784856  22.619542
  13682.986  13682.990  0.500  1.111465  38.704038  68.748515  22.623511
  13685.832  13685.820  0.500  1.110999  38.674219  68.698756  22.617692
  13688.679  13688.670  0.500  1.110442  38.643597  68.638342  22.610394
  13691.544  13691.550  0.500  1.109900  38.632918  68.629794  22.619815
  13694.418  13694.440  0.500  1.109471  38.597017  68.574450  22.611272
  13697.351  13697.350  0.500  1.109042  38.580454  68.545434  22.611405
  13700.268  13700.270  0.500  1.108649  38.558822  68.508608  22.608151
  13703.195  13703.220  0.500  1.108308  38.517646  68.446085  22.595224
  13706.197  13706.190  0.500  1.108086  38.502381  68.417666  22.590846
  13709.176  13709.170  0.500  1.108001  38.475844  68.374243  22.578426
  13712.181  13712.180  0.500  1.107842  38.454985  68.347673  22.573250
  13715.195  13715.200  0.500  1.107590  38.421616  68.287535  22.559064
  13718.244  13718.250  0.500  1.106973  38.404961  68.261985  22.564550
  13721.326  13721.310  0.500  1.106531  38.383240  68.228352  22.563406
  13724.411  13724.390  0.500  1.105531  38.354987  68.180384  22.570104
  13727.488  13727.490  0.500  1.104534  38.322848  68.135540  22.577762
  13730.616  13730.610  0.500  1.103354  38.305029  68.095967  22.591285
  13733.754  13733.750  0.500  1.102277  38.268313  68.047068  22.599375
  13736.918  13736.900  0.500  1.101223  38.240868  68.001944  22.608223
  13740.075  13740.080  0.500  1.100390  38.221221  67.965978  22.615076
  13743.259  13743.270  0.500  1.099530  38.192249  67.917763  22.618486
  13746.526  13746.490  0.500  1.098928  38.169616  67.880620  22.619726
  13749.729  13749.720  0.500  1.098558  38.149964  67.852966  22.618879
  13752.958  13752.970  0.500  1.098366  38.100617  67.774385  22.597036
  13756.255  13756.250  0.500  1.097897  38.079336  67.733642  22.594039
  13759.570  13759.540  0.500  1.097349  38.044781  67.680094  22.588558
  13762.870  13762.850  0.500  1.096792  38.017303  67.635477  22.586246
  13766.164  13766.170  0.500  1.095925  37.990421  67.590734  22.590864
  13769.517  13769.520  0.500  1.094850  37.972825  67.566443  22.607031
  13772.930  13772.890  0.500  1.093887  37.931577  67.494664  22.604784
  13776.294  13776.270  0.500  1.092789  37.898721  67.443358  22.612406
  13779.685  13779.680  0.500  1.091655  37.898508  67.442580  22.637804
  13783.103  13783.100  0.500  1.090798  37.838988  67.341693  22.623331
  13786.556  13786.550  0.500  1.089902  37.808380  67.298062  22.628932
  13790.035  13790.010  0.500  1.089021  37.772548  67.236808  22.628271
  13793.491  13793.490  0.500  1.088218  37.759585  67.223809  22.642068
  13796.999  13796.990  0.500  1.087179  37.705105  67.130722  22.634215
  13800.534  13800.510  0.500  1.086401  37.683670  67.100057  22.641476
  13804.070  13804.050  0.500  1.085311  37.656140  67.044761  22.647498
  13807.617  13807.600  0.500  1.084165  37.631380  67.005734  22.660277
  13811.199  13811.180  0.500  1.083082  37.604369  66.961800  22.669953
  13814.815  13814.780  0.500  1.081884  37.565418  66.898779  22.675757
  13818.418  13818.390  0.500  1.080840  37.654437  67.067523  22.756718
  13822.022  13822.020  0.500  1.079785  37.649272  67.057896  22.777454
  13825.728  13825.680  0.500  1.078996  37.608193  66.994832  22.773992
  13829.369  13829.350  0.500  1.078118  37.541552  66.885529  22.756805
  13833.038  13833.040  0.500  1.077267  37.539122  66.879625  22.774170
  13836.758  13836.750  0.500  1.076634  37.507224  66.822179  22.769030
  13840.498  13840.480  0.500  1.076076  37.500995  66.815989  22.779620
  13844.230  13844.220  0.500  1.075179  37.439048  66.712436  22.764719
  13847.974  13847.990  0.500  1.074363  37.393969  66.637084  22.757575
  13851.786  13851.780  0.500  1.073720  37.345336  66.559727  22.745791
  13855.618  13855.580  0.500  1.072844  37.322112  66.519104  22.751823
  13859.409  13859.410  0.500  1.072023  37.307596  66.500448  22.764130
  13863.270  13863.250  0.500  1.071092  37.260140  66.415191  22.756113
  13867.116  13867.110  0.500  1.070227  37.207360  66.332637  22.747489
  13871.007  13870.990  0.500  1.069402  37.171419  66.275681  22.746722
  13874.899  13874.890  0.500  1.068647  37.084541  66.120346  22.710556
  13878.836  13878.810  0.500  1.067757  37.022999  66.015068  22.694585
  13882.775  13882.750  0.500  1.066950  36.937192  65.868823  22.662593
  13886.716  13886.710  0.500  1.065981  36.833800  65.694831  22.624640
  13890.694  13890.680  0.500  1.065028  36.741373  65.527038  22.588364
  13894.707  13894.680  0.500  1.063889  36.644117  65.355117  22.554766
  13898.698  13898.690  0.500  1.062766  36.626299  65.328007  22.570742
  13902.741  13902.730  0.500  1.061700  36.581689  65.252331  22.568645
  13906.821  13906.780  0.500  1.060546  36.623837  65.338230  22.624448
  13910.860  13910.850  0.500  1.059514  36.540784  65.204115  22.601325
  13914.953  13914.940  0.500  1.058534  36.550906  65.221866  22.629653
  13919.065  13919.050  0.500  1.057505  36.459550  65.058785  22.596304
  13923.205  13923.180  0.500  1.056439  36.450250  65.054084  22.618766
  13927.331  13927.330  0.500  1.055420  36.425812  65.022093  22.630701
  13931.518  13931.490  0.500  1.054298  36.426434  65.022785  22.656335
  13935.674  13935.680  0.500  1.053467  36.397095  64.975217  22.658592
  13939.901  13939.880  0.500  1.052378  36.363133  64.918799  22.663569
  13944.138  13944.110  0.500  1.051249  36.327606  64.859414  22.668437
  13948.370  13948.350  0.500  1.050152  36.289558  64.797512  22.671657
  13952.630  13952.610  0.500  1.048995  36.259472  64.739692  22.677631
  13956.926  13956.890  0.500  1.048098  36.209535  64.667555  22.672712
  13961.191  13961.190  0.500  1.047164  36.179495  64.611027  22.674047
  13965.527  13965.510  0.500  1.046119  36.119515  64.510812  22.662561
  13969.866  13969.850  0.500  1.045172  36.000930  64.304022  22.611318
  13974.207  13974.210  0.500  1.044164  33.682466  60.167756  21.178207
  13978.611  13978.590  0.500  1.043358  36.058259  64.419251  22.692951
  13983.017  13982.980  0.500  1.042245  36.051241  64.408395  22.714400
  13987.435  13987.400  0.500  1.041169  36.013161  64.345983  22.716816
  13991.847  13991.830  0.500  1.040161  35.969462  64.274301  22.714402
  13996.288  13996.280  0.500  1.039016  35.924443  64.197049  22.713083
  14000.740  14000.750  0.500  1.037933  35.892796  64.148957  22.720654
  14005.255  14005.240  0.500  1.036826  35.865784  64.107287  22.731043
  14009.773  14009.750  0.500  1.035695  35.829536  64.049384  22.736233
  14014.294  14014.280  0.500  1.034737  35.784515  63.972414  22.730675
  14018.852  14018.830  0.500  1.033723  35.748659  63.917354  22.734136
  14023.439  14023.400  0.500  1.032778  35.704933  63.841786  22.728728
  14027.977  14027.980  0.500  1.031930  35.675462  63.791360  22.730057
  14032.639  14032.590  0.500  1.030898  35.624165  63.704865  22.722659
  14037.244  14037.210  0.500  1.029788  35.600392  63.668290  22.734841
  14041.886  14041.860  0.500  1.028972  35.551057  63.591016  22.725791
  14046.548  14046.520  0.500  1.027769  35.513753  63.524005  22.729169
  14051.214  14051.200  0.500  1.026781  35.483771  63.478148  22.735213
  14055.926  14055.900  0.500  1.025655  35.429233  63.378104  22.724959
  14060.658  14060.620  0.500  1.024602  35.352900  63.249047  22.702565
  14065.351  14065.360  0.500  1.023661  35.292998  63.149875  22.688309
  14070.133  14070.110  0.500  1.022534  35.013334  62.658177  22.537048
  14074.901  14074.890  0.500  1.021242  33.949828  60.759992  21.882560
  14079.707  14079.690  0.500  1.020320  35.357208  63.279832  22.811093
  14084.542  14084.500  0.500  1.019306  35.217121  63.039111  22.747362
  14089.337  14089.330  0.500  1.018250  35.255415  63.105025  22.795209
  14094.214  14094.190  0.500  1.017176  35.205930  63.029080  22.792235
  14099.094  14099.060  0.500  1.016165  35.126298  62.890403  22.765088
  14103.986  14103.950  0.500  1.014959  35.066638  62.795186  22.758068
  14108.891  14108.860  0.500  1.013821  34.898145  62.489960  22.673221
  14113.798  14113.790  0.500  1.012684  34.918544  62.535635  22.715613
  14118.771  14118.730  0.500  1.011649  33.888249  60.694945  22.069837
  14123.711  14123.700  0.500  1.010288  34.994363  62.684127  22.824183
  14128.717  14128.690  0.500  1.009233  34.951059  62.608777  22.820792
  14133.726  14133.690  0.500  1.008212  34.897800  62.523049  22.812836
  14138.756  14138.720  0.500  1.007111  34.855395  62.447253  22.810272
  14143.790  14143.760  0.500  1.006013  34.807558  62.376799  22.809578
  14148.879  14148.820  0.500  1.004978  34.775159  62.321704  22.813036
  14153.929  14153.900  0.500  1.003865  34.689677  62.175621  22.784909
  14159.044  14159.000  0.500  1.002676  34.543753  61.917220  22.717193
  14164.162  14164.120  0.500  1.001658  34.187365  61.287032  22.508897
  14169.311  14169.260  0.500  1.000328  34.169007  61.257129  22.527838
  14174.454  14174.420  0.500  0.999392  34.649886  62.125558  22.868620
  14179.628  14179.600  0.500  0.998491  34.587958  62.017269  22.849327
  14184.832  14184.790  0.500  0.997383  34.552007  61.955073  22.851722
  14190.066  14190.010  0.500  0.996138  34.492444  61.856742  22.843871
  14195.251  14195.240  0.500  0.995218  34.448095  61.782840  22.837593
  14200.546  14200.490  0.500  0.994237  34.415614  61.733076  22.841592
  14205.774  14205.760  0.500  0.992867  34.367422  61.644230  22.839991
  14211.094  14211.050  0.500  0.991990  34.321957  61.576805  22.835026
  14216.383  14216.360  0.500  0.990876  34.277233  61.504138  22.833484
  14221.712  14221.690  0.500  0.989877  34.238906  61.440072  22.832504
  14227.097  14227.040  0.500  0.988589  34.203830  61.376268  22.838197
  14232.469  14232.410  0.500  0.987499  34.142777  61.275622  22.825599
  14237.836  14237.790  0.500  0.986474  34.108052  61.214076  22.826057
  14243.251  14243.200  0.500  0.985253  34.064660  61.141377  22.826813
  14248.636  14248.620  0.500  0.984347  34.023029  61.079070  22.824211
  14254.122  14254.070  0.500  0.983142  33.969226  60.989470  22.818223
  14259.568  14259.530  0.500  0.981847  33.908094  60.878570  22.806238
  14265.044  14265.010  0.500  0.980848  33.824820  60.733966  22.774804
  14270.552  14270.510  0.500  0.979753  31.355004  56.309069  21.138633
  14276.082  14276.030  0.500  0.978545  33.817879  60.735090  22.827733
  14281.643  14281.570  0.500  0.977448  33.786046  60.683968  22.833554
  14287.190  14287.120  0.500  0.976363  33.735582  60.603687  22.828102
  14292.733  14292.700  0.500  0.975304  33.707039  60.559088  22.835493
  14298.360  14298.300  0.500  0.974051  33.628596  60.426734  22.814145
  14303.939  14303.910  0.500  0.972818  33.608554  60.393110  22.829581
  14309.593  14309.550  0.500  0.971906  33.561123  60.307746  22.818103
  14315.261  14315.200  0.500  0.970572  33.488903  60.186407  22.802606
  14320.897  14320.870  0.500  0.969404  33.478698  60.180299  22.826935
  14326.592  14326.560  0.500  0.968398  33.417646  60.068806  22.807569
