# XDI/1.0 BlueSky/1.10.0 BMM/2023-1.0-py310-tiled
# Beamline.name: BMM (06BM) -- Beamline for Materials Measurement (NIST)
# Beamline.xray_source: NSLS-II three-pole wiggler
# Beamline.collimation: paraboloid mirror, 5 nm Rh on 30 nm Pt
# Beamline.focusing: not in use
# Beamline.harmonic_rejection: flat mirror, Pt stripe, pitch = 7.0 mrad relative to beam
# Beamline.software: Bluesky 1.10.0, Ophyd 1.7.0, DataBroker 2.0.0b13, Python 3.10.8, 2023-1.0-py310-tiled
# Detector.I0: 10 cm N2
# Detector.I1: 25 cm N2
# Detector.I2: 25 cm N2
# Element.symbol: Er
# Element.edge: L3
# Element.reference: Er
# Element.reference_material: Er2O3
# Facility.name: NSLS-II
# Facility.energy: 3.0
# Facility.current: 399.3
# Facility.mode: top-off
# Facility.GUP: 123456
# Facility.SAF: 301027
# Facility.cycle: 2023-2
# Mono.name: Si(111)
# Mono.d_spacing: 3.1351860
# Mono.encoder_resolution: 0.0000050 deg/ct
# Mono.angle_offset: 16.0754326 deg
# Mono.scan_mode: pseudo channel cut
# Mono.scan_type: step
# Mono.direction: forward in energy
# Sample.name: Er2O3
# Sample.prep: Powder in PEG pellet
# Sample.x: 123.848 mm
# Sample.y: 114.690 mm
# Sample.SDD_position: 205.000 mm
# Scan.experimenters: Bruce Ravel
# Scan.edge_energy: 8357.9
# Scan.start_time: 2023-05-08T19:06:25
# Scan.end_time: 2023-05-08T19:12:21
# Scan.transient_id: 75521
# Scan.uid: 779a3337-3817-4134-95b5-ebf0a9af7930
# Scan.plot_hint: ln(I0/It)  --  ln($5/$6)
# Column.1: energy eV
# Column.2: requested_energy eV
# Column.3: measurement_time seconds
# Column.4: xmu 
# Column.5: I0 nA
# Column.6: It nA
# Column.7: Ir nA
# ///////////
# sample courtesy Martin Stennett, University of Sheffield
# -----------
# energy  requested_energy  measurement_time  xmu  I0  It  Ir
  8157.917  8157.900  0.500  1.404250  134.928632  33.131869  13.215871
  8167.918  8167.900  0.500  1.397199  134.782558  33.330197  13.340438
  8177.964  8177.900  0.500  1.390026  134.626125  33.531167  13.463279
  8187.955  8187.900  0.500  1.382706  134.474296  33.739414  13.591096
  8197.945  8197.900  0.500  1.375505  134.312173  33.942288  13.716948
  8207.926  8207.900  0.500  1.368430  134.149027  34.141750  13.842374
  8217.926  8217.900  0.500  1.361514  133.965265  34.331624  13.964399
  8227.931  8227.900  0.500  1.354479  133.814235  34.535002  14.089363
  8237.920  8237.900  0.500  1.347389  133.654323  34.739180  14.216674
  8247.923  8247.900  0.500  1.340608  133.480224  34.929972  14.340200
  8258.091  8257.900  0.500  1.333778  133.261824  35.111834  14.459275
  8269.073  8267.900  0.500  1.326510  133.087218  35.321614  14.596170
  8277.885  8277.900  0.500  1.320806  132.165302  35.277578  14.615350
  8287.882  8287.900  0.500  1.314494  132.720981  35.650218  14.813756
  8297.887  8297.900  0.500  1.308703  132.563021  35.814595  14.922424
  8307.889  8307.900  0.500  1.303677  132.372883  35.943404  15.013937
  8317.884  8317.900  0.500  1.300214  132.202667  36.021736  15.074319
  8327.889  8327.900  0.500  1.300022  132.010567  35.976268  15.067072
  8329.882  8329.900  0.500  1.301005  131.960997  35.927439  15.044953
  8331.881  8331.900  0.500  1.302083  131.887894  35.868868  15.017768
  8333.879  8333.900  0.500  1.303862  131.739820  35.764890  14.967468
  8335.877  8335.900  0.500  1.306285  131.645114  35.652695  14.909744
  8337.880  8337.900  0.500  1.309874  131.606810  35.514631  14.835896
  8339.880  8339.900  0.500  1.314585  131.534451  35.328266  14.736047
  8341.882  8341.900  0.500  1.321355  131.459576  35.069950  14.597813
  8343.884  8343.900  0.500  1.331106  131.384394  34.709791  14.403210
  8345.885  8345.900  0.500  1.345684  131.326906  34.192481  14.121405
  8347.880  8347.900  0.500  1.368235  131.240937  33.408140  13.693987
  8348.373  8348.400  0.500  1.375868  131.203943  33.144767  13.550864
  8348.879  8348.900  0.500  1.384516  131.168437  32.850486  13.390069
  8349.369  8349.400  0.500  1.394930  131.127901  32.500091  13.202725
  8349.874  8349.900  0.500  1.407647  131.083090  32.078446  12.975455
  8350.373  8350.400  0.500  1.422383  131.038057  31.598356  12.717834
  8350.876  8350.900  0.500  1.439659  130.994503  31.046825  12.424487
  8351.375  8351.400  0.500  1.458083  130.932685  30.465680  12.117983
  8351.877  8351.900  0.500  1.476718  130.896955  29.895043  11.814543
  8352.380  8352.400  0.500  1.494503  130.855503  29.358738  11.532234
  8352.886  8352.900  0.500  1.512114  130.828439  28.840264  11.262114
  8353.388  8353.400  0.500  1.530949  130.807842  28.297709  10.981508
  8353.885  8353.900  0.500  1.553345  130.800197  27.669366  10.655565
  8354.385  8354.400  0.500  1.581206  130.791745  26.907361  10.266893
  8354.882  8354.900  0.500  1.616218  130.791543  25.981562  9.798358
  8355.378  8355.400  0.500  1.661331  130.789282  24.835061  9.226147
  8355.875  8355.900  0.500  1.718208  130.781467  23.460543  8.552192
  8356.387  8356.400  0.500  1.792674  130.774793  21.775885  7.742713
  8356.884  8356.900  0.500  1.886034  130.755631  19.831987  6.836582
  8357.394  8357.400  0.500  2.003079  130.874497  17.657493  5.856655
  8357.891  8357.900  0.500  2.137713  131.219416  15.473944  4.908271
  8358.388  8358.400  0.500  2.295007  131.203828  13.220182  3.980392
  8358.891  8358.900  0.500  2.471254  131.199235  11.083560  3.143681
  8359.395  8359.400  0.500  2.651053  131.190152  9.258993  2.469014
  8359.895  8359.900  0.500  2.815123  131.187221  7.857769  1.978367
  8360.390  8360.400  0.500  2.944335  131.167726  6.904282  1.659569
  8360.884  8360.900  0.500  3.037757  131.169375  6.288561  1.462257
  8361.388  8361.400  0.500  3.103435  131.181371  5.889352  1.337996
  8361.892  8361.900  0.500  3.149970  131.170804  5.621118  1.256057
  8362.401  8362.400  0.500  3.183450  131.164042  5.435759  1.199927
  8362.899  8362.900  0.500  3.199351  131.152972  5.349557  1.174601
  8363.400  8363.400  0.500  3.189959  131.138631  5.399444  1.189008
  8363.895  8363.900  0.500  3.151141  131.133570  5.612947  1.253137
  8364.396  8364.400  0.500  3.083234  131.125431  6.006971  1.373339
  8364.894  8364.900  0.500  2.989267  131.116664  6.598354  1.558903
  8365.392  8365.400  0.500  2.876041  131.104744  7.388729  1.816257
  8365.897  8365.900  0.500  2.756580  131.096873  8.325779  2.131446
  8366.395  8366.400  0.500  2.641483  131.087751  9.340724  2.487729
  8366.893  8366.900  0.500  2.537959  131.077288  10.358714  2.857529
  8367.400  8367.400  0.500  2.445154  131.071520  11.365571  3.236066
  8367.902  8367.900  0.500  2.367203  131.065376  12.286398  3.591390
  8368.403  8368.400  0.500  2.302014  131.057846  13.113275  3.919108
  8368.887  8368.900  0.500  2.250356  131.049992  13.807649  4.199229
  8369.392  8369.400  0.500  2.208270  131.046019  14.400723  4.442501
  8369.887  8369.900  0.500  2.174828  131.038084  14.889562  4.644969
  8370.401  8370.400  0.500  2.146377  131.027744  15.318052  4.826253
  8370.900  8370.900  0.500  2.121859  131.020230  15.697369  4.987091
  8371.402  8371.400  0.500  2.100683  131.001635  16.031045  5.130198
  8371.898  8371.900  0.500  2.082570  130.988588  16.322432  5.256092
  8372.403  8372.400  0.500  2.066976  130.984002  16.578374  5.366748
  8372.902  8372.900  0.500  2.054285  130.961678  16.787257  5.458588
  8373.404  8373.400  0.500  2.043734  130.949502  16.963739  5.535659
  8373.900  8373.900  0.500  2.035236  130.939223  17.107170  5.597901
  8374.402  8374.400  0.500  2.028782  130.928517  17.216527  5.647632
  8374.889  8374.900  0.500  2.024256  130.920882  17.293605  5.681799
  8375.392  8375.400  0.500  2.021927  130.900091  17.331174  5.699371
  8375.897  8375.900  0.500  2.021896  130.883797  17.329567  5.699163
  8376.403  8376.400  0.500  2.023744  130.876793  17.296648  5.685766
  8376.908  8376.900  0.500  2.026894  130.878162  17.242422  5.660812
  8377.399  8377.400  0.500  2.031344  130.863403  17.163931  5.627437
  8377.896  8377.900  0.500  2.036286  130.852750  17.077930  5.589379
  8378.401  8378.400  0.500  2.040836  130.844163  16.999276  5.555383
  8378.898  8378.900  0.500  2.044313  130.837580  16.939420  5.529033
  8379.398  8379.400  0.500  2.046803  130.819051  16.894899  5.510010
  8379.892  8379.900  0.500  2.047769  130.813162  16.877826  5.503792
  8380.398  8380.400  0.500  2.047300  130.797516  16.883731  5.507211
  8380.907  8380.900  0.500  2.045554  130.785424  16.911664  5.519235
  8381.407  8381.400  0.500  2.042214  130.769153  16.966132  5.542349
  8381.910  8381.900  0.500  2.038172  130.759326  17.033575  5.573130
  8382.404  8382.400  0.500  2.033331  130.745381  17.114408  5.609060
  8382.899  8382.900  0.500  2.027919  130.731340  17.205437  5.648454
  8383.890  8383.890  0.500  2.017333  130.701530  17.384582  5.729484
  8384.900  8384.890  0.500  2.009744  130.672116  17.513061  5.786716
  8385.926  8385.910  0.500  2.007827  130.631925  17.541272  5.799260
  8386.969  8386.960  0.500  2.013550  130.595551  17.436317  5.755719
  8388.035  8388.020  0.500  2.025573  130.548664  17.221750  5.660398
  8389.109  8389.100  0.500  2.041958  130.516047  16.937643  5.537598
  8390.205  8390.200  0.500  2.060940  130.493020  16.616234  5.397581
  8391.334  8391.320  0.500  2.080370  130.473970  16.294110  5.258122
  8392.464  8392.460  0.500  2.101660  130.446162  15.947472  5.108902
  8393.621  8393.610  0.500  2.126020  130.433189  15.562136  4.946144
  8394.806  8394.790  0.500  2.151912  130.405269  15.161134  4.775508
  8395.994  8395.980  0.500  2.178238  130.369345  14.763136  4.609780
  8397.207  8397.200  0.500  2.199979  130.342639  14.442684  4.476041
  8398.441  8398.430  0.500  2.213608  130.312063  14.243834  4.394794
  8399.691  8399.680  0.500  2.216399  130.283521  14.201020  4.377634
  8400.953  8400.950  0.500  2.209872  130.260310  14.291474  4.414736
  8402.243  8402.240  0.500  2.195271  130.228800  14.498159  4.501154
  8403.557  8403.550  0.500  2.176897  130.200894  14.763852  4.614267
  8404.890  8404.880  0.500  2.156566  130.176667  15.064278  4.741511
  8406.239  8406.230  0.500  2.137305  130.152011  15.354341  4.864128
  8407.612  8407.600  0.500  2.120441  130.116337  15.611191  4.975173
  8408.986  8408.980  0.500  2.106989  130.080964  15.818314  5.064251
  8410.403  8410.390  0.500  2.096244  130.049033  15.985264  5.136106
  8411.826  8411.810  0.500  2.086576  130.021730  16.137178  5.202609
  8413.256  8413.250  0.500  2.077448  129.997834  16.282151  5.267712
  8414.723  8414.710  0.500  2.068344  129.966355  16.427086  5.331800
  8416.199  8416.190  0.500  2.060330  129.928013  16.554370  5.387460
  8417.701  8417.690  0.500  2.053923  129.895101  16.656565  5.434692
  8419.224  8419.210  0.500  2.048502  129.867309  16.743513  5.472722
  8420.772  8420.750  0.500  2.043818  129.835133  16.817959  5.506091
  8422.321  8422.310  0.500  2.039476  129.797626  16.886258  5.536429
  8423.894  8423.880  0.500  2.036122  129.762875  16.938453  5.561884
  8425.490  8425.480  0.500  2.033775  129.739432  16.975187  5.579242
  8427.098  8427.090  0.500  2.032532  129.699968  16.991135  5.588188
  8428.744  8428.730  0.500  2.032515  129.661928  16.986434  5.585926
  8430.387  8430.380  0.500  2.034323  129.628929  16.951445  5.571309
  8432.058  8432.050  0.500  2.038051  129.590044  16.883307  5.543679
  8433.755  8433.740  0.500  2.043328  129.557272  16.790199  5.503795
  8435.461  8435.450  0.500  2.050084  129.499243  16.669669  5.452444
  8437.192  8437.180  0.500  2.057482  129.468303  16.542857  5.397117
  8438.949  8438.930  0.500  2.065003  129.441184  16.415466  5.342957
  8440.709  8440.690  0.500  2.071738  129.402149  16.300362  5.293629
  8442.483  8442.480  0.500  2.077482  129.367847  16.202708  5.252918
  8444.294  8444.280  0.500  2.081518  129.325424  16.132142  5.223288
  8446.121  8446.110  0.500  2.083732  129.277655  16.090523  5.206615
  8447.951  8447.950  0.500  2.084380  129.231384  16.074340  5.200052
  8449.811  8449.810  0.500  2.083735  129.185389  16.078988  5.203312
  8451.695  8451.690  0.500  2.082076  129.144952  16.100643  5.213735
  8453.599  8453.590  0.500  2.080223  129.106122  16.125651  5.226594
  8455.510  8455.510  0.500  2.078692  129.053492  16.143776  5.235540
  8457.458  8457.450  0.500  2.077995  128.997373  16.148011  5.238959
  8459.408  8459.410  0.500  2.077185  128.948729  16.155011  5.245239
  8461.395  8461.380  0.500  2.075777  128.895167  16.171039  5.252018
  8463.383  8463.380  0.500  2.073703  128.859830  16.200175  5.266858
  8465.400  8465.390  0.500  2.071179  128.817175  16.235744  5.283533
  8467.431  8467.420  0.500  2.068847  128.769436  16.267616  5.298157
  8469.489  8469.480  0.500  2.067007  128.724885  16.291943  5.310709
  8471.562  8471.550  0.500  2.065644  128.671976  16.307453  5.319026
  8473.644  8473.640  0.500  2.064424  128.624416  16.321333  5.325713
  8475.765  8475.750  0.500  2.063004  128.571053  16.337739  5.334486
  8477.883  8477.880  0.500  2.060583  128.520112  16.370852  5.349917
  8480.037  8480.020  0.500  2.056511  128.475773  16.431978  5.379254
  8482.195  8482.190  0.500  2.050357  128.429030  16.527406  5.422021
  8484.391  8484.380  0.500  2.042600  128.366231  16.647950  5.478263
  8486.591  8486.580  0.500  2.034319  128.313989  16.779562  5.537519
  8488.818  8488.800  0.500  2.025402  128.258105  16.922477  5.600964
  8491.064  8491.050  0.500  2.016974  128.202569  17.058304  5.662839
  8493.323  8493.310  0.500  2.010344  128.147079  17.164352  5.712252
  8495.606  8495.590  0.500  2.006754  128.097929  17.219484  5.738479
  8497.899  8497.890  0.500  2.006843  128.047715  17.211198  5.735848
  8500.224  8500.210  0.500  2.009768  127.995597  17.153945  5.712595
  8502.563  8502.550  0.500  2.013260  127.948325  17.087823  5.685022
  8504.922  8504.900  0.500  2.016055  127.899523  17.033635  5.662650
  8507.289  8507.280  0.500  2.018131  127.840195  16.990422  5.644139
  8509.685  8509.670  0.500  2.019704  127.781453  16.955923  5.632159
  8512.095  8512.090  0.500  2.021309  127.719232  16.920488  5.617053
  8514.531  8514.520  0.500  2.023904  127.663874  16.869328  5.597042
  8516.978  8516.970  0.500  2.027666  127.595062  16.796916  5.565682
  8519.473  8519.450  0.500  2.032749  127.521236  16.702095  5.527044
  8521.950  8521.940  0.500  2.037030  127.430644  16.618926  5.492148
  8524.467  8524.450  0.500  2.039703  127.297140  16.557200  5.467495
  8526.979  8526.970  0.500  2.039387  126.970451  16.519933  5.455537
  8529.546  8529.520  0.500  2.035619  122.344178  15.978110  5.284177
  8532.102  8532.090  0.500  2.030008  122.097648  16.035635  5.315218
  8534.687  8534.670  0.500  2.021133  126.892573  16.813926  5.591645
  8537.284  8537.280  0.500  2.012945  127.054008  16.973732  5.660922
  8539.922  8539.900  0.500  2.006552  127.034158  17.079934  5.709653
  8542.563  8542.550  0.500  2.001894  126.979890  17.152340  5.743154
  8545.227  8545.210  0.500  1.998747  126.921731  17.198521  5.766906
  8547.893  8547.890  0.500  1.996849  126.862043  17.223092  5.780189
  8550.611  8550.590  0.500  1.996592  126.799930  17.219087  5.779503
  8553.321  8553.310  0.500  1.996911  126.739541  17.205395  5.775428
  8556.073  8556.050  0.500  1.997166  126.672877  17.191959  5.772343
  8558.809  8558.800  0.500  1.996999  126.596901  17.184520  5.770345
  8561.603  8561.580  0.500  1.996970  126.528585  17.175743  5.768827
  8564.393  8564.370  0.500  1.996984  126.458884  17.166036  5.766686
  8567.213  8567.190  0.500  1.996958  126.388368  17.156918  5.765682
  8570.054  8570.020  0.500  1.996066  126.299128  17.160109  5.768054
  8572.862  8572.870  0.500  1.993894  126.211711  17.185506  5.782606
  8575.747  8575.750  0.500  1.989679  126.122234  17.245860  5.811661
  8578.654  8578.640  0.500  1.984221  126.024154  17.326764  5.851201
  8581.569  8581.550  0.500  1.978701  125.916875  17.407846  5.891261
  8584.486  8584.470  0.500  1.973848  125.785500  17.474282  5.924264
  8587.440  8587.420  0.500  1.969745  125.567203  17.515677  5.946664
  8590.415  8590.390  0.500  1.966486  124.695366  17.450830  5.933351
  8593.383  8593.370  0.500  1.964866  110.422166  15.478389  5.266831
  8596.400  8596.380  0.500  1.963229  125.075950  17.561197  5.979467
  8599.413  8599.400  0.500  1.962861  125.291663  17.597970  5.992802
  8602.473  8602.450  0.500  1.963043  125.179335  17.578981  5.987921
  8605.526  8605.510  0.500  1.963492  124.998136  17.545657  5.977894
  8608.609  8608.590  0.500  1.963603  124.691380  17.500665  5.962558
  8611.701  8611.690  0.500  1.963220  124.118122  17.426879  5.941361
  8614.821  8614.810  0.500  1.962889  122.160312  17.157673  5.849020
  8617.969  8617.950  0.500  1.962320  87.793108  12.337739  4.208808
  8621.119  8621.100  0.500  1.962110  126.233761  17.743608  6.053313
  8624.297  8624.280  0.500  1.960552  125.954206  17.731918  6.053473
  8627.487  8627.470  0.500  1.958393  125.680020  17.731562  6.060550
  8630.711  8630.690  0.500  1.955816  125.458122  17.745923  6.070394
  8633.938  8633.920  0.500  1.953245  125.246774  17.761647  6.082840
  8637.187  8637.170  0.500  1.950568  124.993397  17.773217  6.093994
  8640.467  8640.450  0.500  1.947278  124.190473  17.717240  6.081796
  8643.759  8643.740  0.500  1.943824  110.675981  15.843877  5.446896
  8647.064  8647.050  0.500  1.939541  124.529872  17.903656  6.165390
  8650.383  8650.370  0.500  1.935197  124.732634  18.010878  6.213874
  8653.738  8653.720  0.500  1.930525  124.825824  18.108731  6.257448
  8657.105  8657.090  0.500  1.927134  125.117016  18.212635  6.302356
  8660.494  8660.470  0.500  1.925204  125.024490  18.234320  6.314894
  8663.899  8663.880  0.500  1.923577  124.933024  18.250660  6.325760
  8667.316  8667.300  0.500  1.922095  124.849876  18.265560  6.336622
  8670.771  8670.750  0.500  1.920936  124.755385  18.272894  6.341904
  8674.220  8674.210  0.500  1.919939  124.667285  18.278201  6.347838
  8677.707  8677.690  0.500  1.918179  124.570048  18.296115  6.358367
  8681.213  8681.190  0.500  1.915983  124.470028  18.321623  6.374895
  8684.725  8684.710  0.500  1.912992  124.365855  18.361126  6.395200
  8688.273  8688.250  0.500  1.909754  124.273126  18.406943  6.420436
  8691.817  8691.800  0.500  1.906173  124.157914  18.455855  6.447498
  8695.393  8695.380  0.500  1.902972  124.039728  18.497398  6.469533
  8698.998  8698.980  0.500  1.900397  123.892876  18.523128  6.486927
  8702.610  8702.590  0.500  1.897864  123.618075  18.528925  6.495374
  8706.231  8706.220  0.500  1.895034  120.330038  18.087198  6.347740
  8709.898  8709.880  0.500  1.893716  122.614033  18.454810  6.480089
  8713.567  8713.550  0.500  1.891811  123.626518  18.642681  6.552098
  8717.254  8717.240  0.500  1.889713  123.591726  18.676585  6.571042
  8720.976  8720.950  0.500  1.887075  123.508168  18.713253  6.590724
  8724.694  8724.680  0.500  1.883665  123.409769  18.762227  6.616174
  8728.433  8728.420  0.500  1.880965  123.313507  18.798271  6.638609
  8732.210  8732.190  0.500  1.878624  123.218682  18.827839  6.655559
  8735.992  8735.980  0.500  1.876441  123.119608  18.853815  6.669442
  8739.792  8739.780  0.500  1.874773  123.021628  18.870252  6.681275
  8743.629  8743.610  0.500  1.873074  122.917215  18.886304  6.691979
  8747.467  8747.450  0.500  1.871624  122.823551  18.899304  6.702852
  8751.321  8751.310  0.500  1.869442  122.720182  18.924639  6.716353
  8755.211  8755.190  0.500  1.867244  122.615426  18.950084  6.733689
  8759.098  8759.090  0.500  1.864546  122.519884  18.986491  6.753642
  8763.026  8763.010  0.500  1.861316  122.410238  19.030856  6.778446
  8766.973  8766.950  0.500  1.858298  122.309614  19.072691  6.801796
  8770.931  8770.910  0.500  1.855120  122.210038  19.117818  6.827505
  8774.895  8774.880  0.500  1.851738  122.105565  19.166188  6.853835
  8778.897  8778.880  0.500  1.848402  122.015903  19.216122  6.881043
  8782.912  8782.890  0.500  1.844766  121.905578  19.268678  6.909888
  8786.940  8786.930  0.500  1.841480  121.792287  19.314127  6.935178
  8790.996  8790.980  0.500  1.838088  121.678662  19.361670  6.962129
  8795.069  8795.050  0.500  1.834204  121.565182  19.418891  6.993558
  8799.163  8799.140  0.500  1.830408  121.458752  19.475681  7.025242
  8803.270  8803.250  0.500  1.826615  121.352435  19.532585  7.056772
  8807.402  8807.380  0.500  1.823436  121.243994  19.577258  7.080526
  8811.537  8811.530  0.500  1.821288  121.127524  19.600519  7.097560
  8815.700  8815.690  0.500  1.819469  121.026451  19.619827  7.110408
  8819.890  8819.880  0.500  1.818209  120.923391  19.627833  7.118976
  8824.088  8824.080  0.500  1.816758  120.822124  19.639872  7.127468
  8828.317  8828.310  0.500  1.815250  120.702575  19.650040  7.137104
  8832.570  8832.550  0.500  1.813196  120.596266  19.673094  7.151370
  8836.820  8836.810  0.500  1.810478  120.499430  19.710811  7.173899
  8841.098  8841.090  0.500  1.807286  120.385089  19.755065  7.200668
  8845.408  8845.390  0.500  1.803936  120.270049  19.802405  7.227813
  8849.721  8849.710  0.500  1.800561  120.158121  19.850860  7.255702
  8854.066  8854.050  0.500  1.797011  120.039344  19.901767  7.285099
  8858.429  8858.410  0.500  1.793295  119.925841  19.956971  7.314779
  8862.803  8862.790  0.500  1.789872  119.799784  20.004354  7.342269
  8867.192  8867.180  0.500  1.786545  119.688782  20.052425  7.370633
  8871.622  8871.600  0.500  1.783136  119.579948  20.102607  7.399987
  8876.040  8876.030  0.500  1.779679  119.460021  20.151977  7.428871
  8880.503  8880.480  0.500  1.776088  119.335497  20.203391  7.457775
  8884.974  8884.950  0.500  1.772301  119.219483  20.260343  7.490326
  8889.453  8889.440  0.500  1.768847  119.093846  20.309021  7.520438
  8893.971  8893.950  0.500  1.766245  118.953674  20.337960  7.538169
  8898.500  8898.480  0.500  1.763827  118.841399  20.367945  7.557361
  8903.052  8903.030  0.500  1.761920  118.706735  20.383716  7.570991
