# XDI/1.0 BlueSky/1.10.0 BMM/2023-1.0-py310-tiled
# Beamline.name: BMM (06BM) -- Beamline for Materials Measurement (NIST)
# Beamline.xray_source: NSLS-II three-pole wiggler
# Beamline.collimation: paraboloid mirror, 5 nm Rh on 30 nm Pt
# Beamline.focusing: not in use
# Beamline.harmonic_rejection: flat mirror, Pt stripe, pitch = 7.0 mrad relative to beam
# Beamline.software: Bluesky 1.10.0, Ophyd 1.7.0, DataBroker 2.0.0b13, Python 3.10.8, 2023-1.0-py310-tiled
# Detector.I0: 10 cm N2
# Detector.I1: 25 cm N2
# Detector.I2: 25 cm N2
# Element.symbol: W
# Element.edge: L3
# Element.reference: W
# Element.reference_material: WO3
# Facility.name: NSLS-II
# Facility.energy: 3.0
# Facility.current: 399.9
# Facility.mode: top-off
# Facility.GUP: 301027
# Facility.SAF: 310583
# Facility.cycle: 2023-2
# Mono.name: Si(111)
# Mono.d_spacing: 3.1351860
# Mono.encoder_resolution: 0.0000050 deg/ct
# Mono.angle_offset: 16.0754326 deg
# Mono.scan_mode: pseudo channel cut
# Mono.scan_type: step
# Mono.direction: forward in energy
# Sample.name: WO3
# Sample.prep: PEG pellet
# Sample.x: 109.138 mm
# Sample.y: 153.150 mm
# Sample.SDD_position: 205.000 mm
# Scan.experimenters: Bruce Ravel
# Scan.edge_energy: 10206.8
# Scan.start_time: 2023-05-28T17:40:11
# Scan.end_time: 2023-05-28T17:48:36
# Scan.transient_id: 78882
# Scan.uid: c40f4c59-4dae-4041-9b24-ad9d6c138e51
# Scan.plot_hint: ln(It/Ir)  --  ln($6/$7)
# Column.1: energy eV
# Column.2: requested_energy eV
# Column.3: measurement_time seconds
# Column.4: xmu 
# Column.5: I0 nA
# Column.6: It nA
# Column.7: Ir nA
# ///////////
# sample courtesy Martin Stennett, University of Sheffield
# -----------
# energy  requested_energy  measurement_time  xmu  I0  It  Ir
  10006.746  10006.800  0.500  1.242203  97.376917  149.311810  43.113402
  10016.829  10016.800  0.500  1.239219  96.489871  148.061706  42.880176
  10026.841  10026.800  0.500  1.235981  96.974958  148.907173  43.264932
  10036.891  10036.800  0.500  1.233105  93.961618  144.401951  42.076759
  10046.861  10046.800  0.500  1.230050  96.665364  148.630529  43.441424
  10056.830  10056.800  0.500  1.227037  96.490457  148.480876  43.528629
  10066.836  10066.800  0.500  1.224053  96.271706  148.252350  43.591532
  10076.867  10076.800  0.500  1.221130  96.095481  148.108623  43.676762
  10086.821  10086.800  0.500  1.218170  95.919703  147.945698  43.758032
  10096.836  10096.800  0.500  1.215321  95.670735  147.655712  43.796886
  10106.839  10106.800  0.500  1.212506  95.514204  147.511624  43.877482
  10116.832  10116.800  0.500  1.209816  95.337436  147.348990  43.947174
  10126.859  10126.800  0.500  1.207193  95.160250  147.186182  44.013885
  10136.865  10136.800  0.500  1.204766  94.956489  146.951680  44.050567
  10146.821  10146.800  0.500  1.202946  94.800866  146.800847  44.085481
  10156.841  10156.800  0.500  1.201657  94.630252  146.637986  44.093406
  10166.832  10166.800  0.500  1.201631  94.394844  146.378103  44.016383
  10176.834  10176.800  0.500  1.204622  94.284090  146.308691  43.864142
  10178.781  10178.800  0.500  1.205908  94.225478  146.247037  43.789290
  10180.773  10180.800  0.500  1.207442  94.174941  146.188418  43.704648
  10182.779  10182.800  0.500  1.209560  94.139679  146.167452  43.605902
  10184.777  10184.800  0.500  1.212293  94.098981  146.114238  43.471062
  10186.776  10186.800  0.500  1.215742  94.053503  146.063263  43.306292
  10188.767  10188.800  0.500  1.220283  94.016062  146.029461  43.100122
  10190.780  10190.800  0.500  1.226404  93.976218  145.978790  42.822219
  10192.773  10192.800  0.500  1.234569  93.909330  145.893259  42.449119
  10194.779  10194.800  0.500  1.245737  93.676508  145.542799  41.876859
  10196.782  10196.800  0.500  1.262042  93.827781  145.783913  41.267838
  10197.070  10197.100  0.500  1.264944  93.842419  145.831952  41.161826
  10197.354  10197.400  0.500  1.267881  93.845039  145.852314  41.046831
  10197.674  10197.700  0.500  1.271464  93.824006  145.803186  40.886257
  10197.966  10198.000  0.500  1.274869  93.821067  145.819858  40.751920
  10198.259  10198.300  0.500  1.278557  93.811749  145.811593  40.599620
  10198.570  10198.600  0.500  1.282729  93.813967  145.826513  40.434716
  10198.867  10198.900  0.500  1.286910  93.804973  145.808352  40.261008
  10199.173  10199.200  0.500  1.291605  93.780118  145.764811  40.060445
  10199.466  10199.500  0.500  1.296386  93.795231  145.771795  39.871274
  10199.759  10199.800  0.500  1.301695  93.766512  145.728413  39.648376
  10200.065  10200.100  0.500  1.307452  93.752057  145.712079  39.416350
  10200.358  10200.400  0.500  1.313337  93.764581  145.729844  39.189843
  10200.669  10200.700  0.500  1.319967  93.744751  145.695340  38.921662
  10200.966  10201.000  0.500  1.327119  93.752342  145.710622  38.648335
  10201.263  10201.300  0.500  1.334692  93.715626  145.669526  38.345934
  10201.570  10201.600  0.500  1.342894  93.708129  145.657587  38.029595
  10201.863  10201.900  0.500  1.351640  93.710482  145.682979  37.705019
  10202.169  10202.200  0.500  1.361297  93.692856  145.648819  37.333878
  10202.480  10202.500  0.500  1.371413  93.681480  145.614474  36.949395
  10202.773  10202.800  0.500  1.382146  93.677073  145.622566  36.556979
  10203.084  10203.100  0.500  1.394317  93.670310  145.615424  36.112971
  10203.377  10203.400  0.500  1.406809  93.654857  145.591716  35.658844
  10203.693  10203.700  0.500  1.421447  93.658776  145.592165  35.140770
  10203.990  10204.000  0.500  1.436786  93.663186  145.613199  34.610872
  10204.288  10204.300  0.500  1.454252  93.633374  145.559037  33.998956
  10204.585  10204.600  0.500  1.472616  93.634175  145.580918  33.385303
  10204.887  10204.900  0.500  1.493487  93.885179  145.979536  32.785289
  10205.194  10205.200  0.500  1.516058  93.868868  145.951291  32.047377
  10205.492  10205.500  0.500  1.540387  93.873280  145.956864  31.278276
  10205.798  10205.800  0.500  1.567598  93.870355  145.949572  30.437123
  10206.082  10206.100  0.500  1.594830  93.866234  145.958280  29.621227
  10206.394  10206.400  0.500  1.625725  93.880819  145.982076  28.724750
  10206.687  10206.700  0.500  1.657245  93.854507  145.944688  27.826335
  10206.989  10207.000  0.500  1.690395  93.863126  145.944189  26.918915
  10207.296  10207.300  0.500  1.725213  93.844447  145.927714  25.994837
  10207.584  10207.600  0.500  1.760294  93.830748  145.910715  25.095816
  10207.891  10207.900  0.500  1.795727  93.846307  145.937339  24.226589
  10208.184  10208.200  0.500  1.830026  93.824683  145.908166  23.405051
  10208.487  10208.500  0.500  1.863598  93.816571  145.911864  22.632912
  10208.785  10208.800  0.500  1.893479  93.794817  145.889036  21.963173
  10209.091  10209.100  0.500  1.919612  93.805550  145.913564  21.400246
  10209.394  10209.400  0.500  1.941341  93.797860  145.893185  20.937339
  10209.683  10209.700  0.500  1.956650  93.778006  145.877160  20.616979
  10209.999  10210.000  0.500  1.968397  93.777852  145.871792  20.375459
  10210.297  10210.300  0.500  1.975440  93.768451  145.866122  20.231677
  10210.590  10210.600  0.500  1.979350  93.776207  145.871720  20.153485
  10210.906  10210.900  0.500  1.981591  93.755684  145.829869  20.102610
  10211.199  10211.200  0.500  1.982606  93.737930  145.821046  20.080997
  10211.497  10211.500  0.500  1.983426  93.747168  145.835090  20.066473
  10211.800  10211.800  0.500  1.983891  93.739128  145.815181  20.054397
  10212.093  10212.100  0.500  1.984294  93.738180  145.822679  20.047362
  10212.400  10212.400  0.500  1.984220  93.720548  145.810536  20.047173
  10212.694  10212.700  0.500  1.982888  93.713266  145.787048  20.070664
  10212.988  10213.000  0.500  1.980101  93.703372  145.778510  20.125487
  10213.299  10213.300  0.500  1.974455  93.695600  145.776511  20.239164
  10213.588  10213.600  0.500  1.966589  93.691116  145.772217  20.398391
  10213.882  10213.900  0.500  1.955352  93.683853  145.761771  20.627421
  10214.194  10214.200  0.500  1.940865  93.683677  145.763357  20.928661
  10214.496  10214.500  0.500  1.923949  93.674851  145.754110  21.284345
  10214.794  10214.800  0.500  1.905297  93.677030  145.766178  21.686860
  10215.111  10215.100  0.500  1.884207  93.656469  145.742027  22.145433
  10215.404  10215.400  0.500  1.864246  93.655466  145.731720  22.590321
  10215.694  10215.700  0.500  1.844305  93.644293  145.713474  23.042421
  10216.010  10216.000  0.500  1.823636  93.644644  145.709971  23.523079
  10216.304  10216.300  0.500  1.805006  93.652846  145.730169  23.968754
  10216.606  10216.600  0.500  1.786556  93.625968  145.697832  24.409660
  10216.909  10216.900  0.500  1.768515  93.613772  145.680242  24.851029
  10217.203  10217.200  0.500  1.751655  93.609840  145.684074  25.274241
  10217.497  10217.500  0.500  1.735933  93.605505  145.677944  25.673654
  10217.800  10217.800  0.500  1.719712  93.585139  145.663184  26.090858
  10218.094  10218.100  0.500  1.705079  93.598758  145.678843  26.478289
  10218.392  10218.400  0.500  1.690990  93.570987  145.623579  26.843802
  10218.695  10218.700  0.500  1.677617  93.579174  145.650572  27.210230
  10218.989  10219.000  0.500  1.665043  93.559700  145.610354  27.546931
  10219.287  10219.300  0.500  1.653573  93.556141  145.612476  27.865133
  10219.599  10219.600  0.500  1.642698  93.547183  145.598535  28.167118
  10219.902  10219.900  0.500  1.633422  93.549651  145.595431  28.429008
  10220.205  10220.200  0.500  1.625086  93.539199  145.593275  28.666548
  10220.508  10220.500  0.500  1.617627  93.515951  145.558166  28.874203
  10220.811  10220.800  0.500  1.611403  93.506475  145.545342  29.051913
  10221.105  10221.100  0.500  1.605835  93.529490  145.589423  29.222992
  10221.418  10221.400  0.500  1.600837  93.515942  145.559683  29.363394
  10221.703  10221.700  0.500  1.596663  93.494762  145.519112  29.478006
  10222.001  10222.000  0.500  1.593116  93.484538  145.514675  29.581835
  10222.309  10222.300  0.500  1.589782  93.476983  145.506007  29.678881
  10222.589  10222.600  0.500  1.587230  93.479204  145.507771  29.755056
  10222.893  10222.900  0.500  1.584755  93.504779  145.543674  29.836167
  10223.200  10223.200  0.500  1.582661  93.487530  145.523937  29.894655
  10223.485  10223.500  0.500  1.580930  93.439773  145.473691  29.936107
  10223.793  10223.800  0.500  1.579193  93.444579  145.464684  29.986283
  10224.096  10224.100  0.500  1.577619  93.455643  145.480644  30.036809
  10224.391  10224.400  0.500  1.576118  93.439916  145.465591  30.078821
  10224.698  10224.700  0.500  1.574561  93.428403  145.465793  30.125737
  10224.997  10225.000  0.500  1.573253  93.417614  145.437839  30.159388
  10225.301  10225.300  0.500  1.572137  93.406661  145.431229  30.191679
  10225.608  10225.600  0.500  1.570991  93.371409  145.387483  30.217203
  10225.894  10225.900  0.500  1.569897  93.348636  145.355505  30.243629
  10226.206  10226.200  0.500  1.569094  93.364909  145.383967  30.273855
  10226.505  10226.500  0.500  1.568237  93.343674  145.357555  30.294292
  10226.804  10226.800  0.500  1.567662  93.350458  145.363284  30.312927
  10227.112  10227.100  0.500  1.566954  93.357406  145.363050  30.334339
  10227.411  10227.400  0.500  1.566489  93.347700  145.366136  30.349108
  10227.701  10227.700  0.500  1.566024  93.344943  145.362606  30.362476
  10228.000  10228.000  0.500  1.565657  93.348078  145.367964  30.374749
  10228.294  10228.300  0.500  1.565400  93.336118  145.357683  30.380390
  10228.598  10228.600  0.500  1.565182  93.339750  145.368855  30.389339
  10228.888  10228.900  0.500  1.564981  93.325396  145.350996  30.391724
  10229.191  10229.200  0.500  1.564681  93.311970  145.333627  30.397201
  10229.495  10229.500  0.500  1.564311  93.310385  145.318485  30.405307
  10229.794  10229.800  0.500  1.563876  93.296984  145.305629  30.415830
  10230.106  10230.100  0.500  1.563375  93.292250  145.299448  30.429782
  10230.383  10230.400  0.500  1.562770  93.311192  145.333946  30.455427
  10230.700  10230.700  0.500  1.561881  93.286656  145.301095  30.475637
  10231.004  10231.000  0.500  1.561089  93.270842  145.285729  30.496544
  10231.303  10231.300  0.500  1.560003  93.260490  145.278022  30.528052
  10231.602  10231.600  0.500  1.559021  93.249513  145.262138  30.554722
  10231.802  10231.800  0.500  1.558295  93.254504  145.261201  30.576715
  10232.890  10232.790  0.500  1.554012  93.227121  145.229119  30.701168
  10233.747  10233.790  0.500  1.551273  93.288514  145.335638  30.807944
  10234.785  10234.810  0.500  1.548051  93.245081  145.267138  30.892798
  10235.879  10235.860  0.500  1.545568  93.223977  145.260998  30.968315
  10236.972  10236.920  0.500  1.543680  93.200159  145.220420  31.018149
  10237.962  10238.000  0.500  1.542879  93.122362  145.110465  31.019497
  10239.078  10239.100  0.500  1.542790  92.895328  144.770668  30.949623
  10240.182  10240.220  0.500  1.543372  92.861085  144.722164  30.921245
  10241.321  10241.360  0.500  1.544003  93.097365  145.107992  30.984123
  10242.484  10242.510  0.500  1.544123  93.089636  145.111103  30.981064
  10243.670  10243.690  0.500  1.543852  93.051439  145.062017  30.979004
  10244.852  10244.880  0.500  1.543336  93.023726  145.034490  30.989095
  10246.088  10246.100  0.500  1.543097  93.014643  145.039532  30.997601
  10247.311  10247.330  0.500  1.543149  92.971636  144.979350  30.983120
  10248.557  10248.580  0.500  1.543903  92.952470  144.958432  30.955296
  10249.822  10249.850  0.500  1.545261  92.923799  144.920504  30.905186
  10251.119  10251.140  0.500  1.547443  92.899750  144.903156  30.834139
  10252.448  10252.450  0.500  1.550564  92.870955  144.858555  30.728590
  10253.768  10253.780  0.500  1.554209  92.844922  144.823933  30.609471
  10255.120  10255.130  0.500  1.558456  92.823229  144.805471  30.475869
  10256.487  10256.500  0.500  1.562756  92.795151  144.767858  30.337213
  10257.858  10257.880  0.500  1.566926  92.754510  144.714891  30.199942
  10259.276  10259.290  0.500  1.570860  92.739511  144.710394  30.080430
  10260.707  10260.710  0.500  1.574316  92.714262  144.685334  29.971447
  10262.157  10262.150  0.500  1.577482  92.672779  144.637291  29.866800
  10263.612  10263.610  0.500  1.580324  92.649582  144.610292  29.776472
  10265.073  10265.090  0.500  1.582673  92.612365  144.572981  29.698940
  10266.574  10266.590  0.500  1.584220  92.579936  144.540139  29.646295
  10268.094  10268.110  0.500  1.584580  92.549443  144.504737  29.628383
  10269.643  10269.650  0.500  1.583534  92.522485  144.472470  29.652739
  10271.205  10271.210  0.500  1.581422  92.488863  144.428602  29.706434
  10272.786  10272.780  0.500  1.578540  92.454366  144.396139  29.785472
  10274.377  10274.380  0.500  1.575556  92.676500  144.764172  29.950633
  10275.977  10275.990  0.500  1.572909  92.629570  144.700460  30.016789
  10277.619  10277.630  0.500  1.570282  92.323893  144.239066  29.999780
  10279.276  10279.280  0.500  1.567955  92.646246  144.760874  30.178448
  10280.955  10280.950  0.500  1.565957  92.625990  144.754843  30.237542
  10282.631  10282.640  0.500  1.564278  92.601291  144.714545  30.279937
  10284.344  10284.350  0.500  1.563102  92.570041  144.682135  30.308762
  10286.067  10286.080  0.500  1.562173  92.532380  144.640393  30.328184
  10287.831  10287.830  0.500  1.561505  92.507241  144.619901  30.344163
  10289.601  10289.590  0.500  1.561161  92.463801  144.574720  30.345112
  10291.390  10291.380  0.500  1.561146  92.433913  144.552417  30.340895
  10293.175  10293.180  0.500  1.561291  92.400063  144.506179  30.326780
  10294.997  10295.010  0.500  1.561431  92.355875  144.462719  30.313418
  10296.856  10296.850  0.500  1.561629  92.325083  144.435086  30.301629
  10298.716  10298.710  0.500  1.561489  92.298167  144.398379  30.298171
  10300.582  10300.590  0.500  1.560954  92.255595  144.342527  30.302650
  10302.489  10302.490  0.500  1.559862  92.205719  144.288607  30.324423
  10304.407  10304.410  0.500  1.558575  92.173292  144.248108  30.354948
  10306.362  10306.350  0.500  1.557021  92.144385  144.224697  30.397222
  10308.313  10308.310  0.500  1.555276  92.107168  144.194448  30.443940
  10310.265  10310.280  0.500  1.553740  92.058927  144.134584  30.478083
  10312.282  10312.280  0.500  1.552095  92.028217  144.093469  30.519550
  10314.295  10314.290  0.500  1.550580  91.980376  144.042798  30.555060
  10316.319  10316.320  0.500  1.549646  91.938252  143.993484  30.573142
  10318.375  10318.380  0.500  1.548782  91.901421  143.961146  30.592700
  10320.456  10320.450  0.500  1.548501  91.845781  143.893302  30.586863
  10322.546  10322.540  0.500  1.548280  91.613098  143.542808  30.519122
  10324.642  10324.650  0.500  1.548491  91.771961  143.809967  30.569471
  10326.785  10326.780  0.500  1.548754  91.746245  143.797745  30.558824
  10328.929  10328.920  0.500  1.548903  91.697395  143.744372  30.542950
  10331.092  10331.090  0.500  1.548845  91.642958  143.684208  30.531913
  10333.298  10333.280  0.500  1.548606  91.597948  143.633843  30.528521
  10335.496  10335.480  0.500  1.548366  91.552587  143.579076  30.524218
  10337.717  10337.700  0.500  1.548086  91.516045  143.539286  30.524286
  10339.944  10339.950  0.500  1.547872  91.473875  143.483445  30.518945
  10342.224  10342.210  0.500  1.547719  91.413068  143.437206  30.513778
  10344.509  10344.490  0.500  1.547826  91.377728  143.388508  30.500170
  10346.781  10346.790  0.500  1.547991  91.337350  143.346614  30.486215
  10349.114  10349.110  0.500  1.548129  91.276581  143.278123  30.467434
  10351.476  10351.450  0.500  1.548330  91.238732  143.234521  30.452055
  10353.798  10353.800  0.500  1.548223  91.192396  143.179262  30.443567
  10356.190  10356.180  0.500  1.547973  91.155551  143.153926  30.445770
  10358.593  10358.570  0.500  1.547677  91.102836  143.095830  30.442437
  10361.001  10360.990  0.500  1.547270  91.060232  143.046659  30.444370
  10363.429  10363.420  0.500  1.547101  91.004461  142.988012  30.437031
  10365.887  10365.870  0.500  1.546843  90.954612  142.927123  30.431912
  10368.364  10368.350  0.500  1.546738  90.901395  142.862291  30.421317
  10370.856  10370.840  0.500  1.546736  90.833999  142.767523  30.401200
  10373.355  10373.350  0.500  1.546490  90.776268  142.685439  30.391168
  10375.887  10375.870  0.500  1.546131  90.725691  142.641755  30.392781
  10378.420  10378.420  0.500  1.545371  90.672545  142.576866  30.402066
  10381.011  10380.990  0.500  1.544436  90.622360  142.525196  30.419475
  10383.575  10383.570  0.500  1.543145  90.572593  142.470360  30.447031
  10386.182  10386.180  0.500  1.541826  90.517362  142.414590  30.475308
  10388.809  10388.800  0.500  1.540548  90.470140  142.362238  30.503044
  10391.457  10391.450  0.500  1.539643  90.412576  142.294569  30.516151
  10394.101  10394.110  0.500  1.538724  90.366772  142.246231  30.533831
  10396.803  10396.790  0.500  1.538075  90.304870  142.190523  30.541707
  10399.492  10399.490  0.500  1.537380  90.254675  142.140936  30.552286
  10402.210  10402.210  0.500  1.536570  90.206713  142.079750  30.563869
  10404.968  10404.950  0.500  1.535707  90.151809  142.001274  30.573372
  10407.699  10407.700  0.500  1.534748  90.096990  141.940803  30.589665
  10410.487  10410.480  0.500  1.533739  90.039878  141.866407  30.604499
  10413.282  10413.270  0.500  1.532955  89.989156  141.807189  30.615708
  10416.098  10416.090  0.500  1.531962  89.925885  141.741272  30.631874
  10418.943  10418.920  0.500  1.531105  89.870172  141.675788  30.643993
  10421.775  10421.770  0.500  1.530105  89.823584  141.622024  30.662994
  10424.656  10424.650  0.500  1.528919  89.759057  141.542307  30.682112
  10427.549  10427.540  0.500  1.528054  89.702388  141.495662  30.698547
  10430.452  10430.450  0.500  1.526871  89.636392  141.431620  30.720977
  10433.385  10433.370  0.500  1.525939  89.588793  141.378574  30.738079
  10436.315  10436.320  0.500  1.525142  89.531624  141.314076  30.748538
  10439.309  10439.290  0.500  1.524055  89.478972  141.248872  30.767778
  10442.280  10442.270  0.500  1.523171  89.403078  141.164972  30.776722
  10445.277  10445.280  0.500  1.522115  89.350240  141.093450  30.793620
  10448.308  10448.300  0.500  1.521201  89.290241  141.030566  30.808024
  10451.361  10451.350  0.500  1.520446  89.228301  140.965533  30.817101
  10454.415  10454.410  0.500  1.519959  89.171406  140.900747  30.817938
  10457.499  10457.490  0.500  1.519430  89.106930  140.824608  30.817582
  10460.590  10460.590  0.500  1.519213  89.049340  140.766749  30.811600
  10463.726  10463.710  0.500  1.519060  88.993723  140.681999  30.797754
  10466.845  10466.850  0.500  1.519015  88.919154  140.610566  30.783521
  10470.022  10470.000  0.500  1.519019  88.861689  140.523180  30.764244
  10473.197  10473.180  0.500  1.519070  88.794421  140.459356  30.748704
  10476.392  10476.370  0.500  1.518999  88.734174  140.391230  30.735976
  10479.599  10479.590  0.500  1.518555  88.673141  140.323020  30.734687
  10482.823  10482.820  0.500  1.518026  88.612620  140.256945  30.736467
  10486.082  10486.070  0.500  1.517236  88.561523  140.198424  30.747946
  10489.357  10489.350  0.500  1.516352  88.495647  140.122459  30.758450
  10492.663  10492.640  0.500  1.515418  88.427434  140.034244  30.767820
  10495.956  10495.950  0.500  1.514180  88.359388  139.964832  30.790647
  10499.281  10499.270  0.500  1.513146  88.281778  139.880489  30.803927
  10502.636  10502.620  0.500  1.512036  88.221865  139.796162  30.819550
  10506.003  10505.990  0.500  1.511142  88.161293  139.729870  30.832501
  10509.377  10509.370  0.500  1.510242  88.086158  139.638927  30.840165
  10512.792  10512.780  0.500  1.509600  87.944152  139.441786  30.816398
  10516.223  10516.200  0.500  1.508865  87.952956  139.481076  30.847743
  10519.656  10519.650  0.500  1.508102  87.883140  139.402348  30.853884
  10523.131  10523.110  0.500  1.507356  87.805892  139.317001  30.858005
  10526.588  10526.590  0.500  1.506418  87.566557  138.955886  30.806898
  10530.110  10530.090  0.500  1.505508  87.685540  139.192615  30.887462
  10533.606  10533.610  0.500  1.504434  87.617418  139.109671  30.902229
  10537.171  10537.150  0.500  1.503314  87.545236  139.012350  30.915237
  10540.710  10540.700  0.500  1.502238  87.408840  138.828661  30.907598
  10544.299  10544.280  0.500  1.500979  87.403275  138.846235  30.950477
  10547.892  10547.880  0.500  1.499783  87.336579  138.759215  30.968089
  10551.520  10551.490  0.500  1.498649  87.260634  138.676664  30.984763
  10555.136  10555.120  0.500  1.497469  87.117681  138.475403  30.976343
  10558.803  10558.780  0.500  1.496435  86.961474  138.250070  30.957925
  10562.478  10562.450  0.500  1.495289  87.055451  138.441164  31.036256
  10566.165  10566.140  0.500  1.494184  86.978687  138.355969  31.051464
  10569.889  10569.850  0.500  1.493279  86.907101  138.279150  31.062310
  10573.605  10573.580  0.500  1.492289  86.841640  138.181619  31.071157
  10577.344  10577.320  0.500  1.491328  86.762488  138.095900  31.081724
  10581.109  10581.090  0.500  1.490415  86.684784  138.005112  31.089676
  10584.916  10584.880  0.500  1.489393  86.586162  137.883611  31.094052
  10588.702  10588.680  0.500  1.488516  86.545480  137.842032  31.111961
  10592.534  10592.510  0.500  1.487753  86.476944  137.770833  31.119624
  10596.369  10596.350  0.500  1.486798  86.398919  137.675218  31.127728
  10600.236  10600.210  0.500  1.485939  86.312847  137.550860  31.126348
  10604.115  10604.090  0.500  1.485035  86.230548  137.461111  31.134167
  10608.027  10607.990  0.500  1.484293  86.164544  137.390311  31.141229
  10611.942  10611.910  0.500  1.483374  86.003361  137.153880  31.116220
  10615.879  10615.850  0.500  1.482410  86.011091  137.198102  31.156293
  10619.819  10619.810  0.500  1.481425  85.664335  136.685758  31.070519
  10623.797  10623.780  0.500  1.480417  85.855375  137.010052  31.175655
  10627.807  10627.780  0.500  1.479410  85.779424  136.913659  31.185094
  10631.810  10631.790  0.500  1.478328  85.697869  136.817295  31.196879
  10635.855  10635.830  0.500  1.477204  85.618544  136.718621  31.209464
  10639.919  10639.880  0.500  1.476296  85.525434  136.606324  31.212148
  10643.985  10643.950  0.500  1.475556  85.177635  136.091213  31.117469
  10648.055  10648.040  0.500  1.474681  85.392300  136.463127  31.229808
  10652.172  10652.150  0.500  1.473950  85.306721  136.359544  31.228934
  10656.312  10656.280  0.500  1.472859  85.212714  136.243967  31.236520
  10660.460  10660.430  0.500  1.471902  85.084526  136.072941  31.227171
  10664.626  10664.590  0.500  1.470905  85.071678  136.074314  31.258658
  10668.811  10668.780  0.500  1.469833  84.978801  135.960429  31.265991
  10672.994  10672.980  0.500  1.468576  84.889875  135.846946  31.279192
  10677.239  10677.210  0.500  1.467398  84.738971  135.643360  31.269114
  10681.468  10681.450  0.500  1.466349  84.727072  135.664444  31.306795
  10685.741  10685.710  0.500  1.465155  84.634765  135.541095  31.315720
  10690.021  10689.990  0.500  1.464058  84.530594  135.423576  31.322909
  10694.325  10694.290  0.500  1.462808  84.434600  135.296098  31.332545
  10698.633  10698.610  0.500  1.461511  83.762120  134.235632  31.127305
  10702.974  10702.950  0.500  1.460292  84.282772  135.097078  31.365273
  10707.338  10707.310  0.500  1.459093  84.192265  134.984386  31.376709
  10711.716  10711.690  0.500  1.457931  84.097862  134.862142  31.384755
  10716.112  10716.080  0.500  1.456906  84.003603  134.748913  31.390573
  10720.527  10720.500  0.500  1.455883  83.911900  134.650835  31.399815
  10724.966  10724.930  0.500  1.454730  83.817650  134.521290  31.405801
  10729.404  10729.380  0.500  1.453489  83.726551  134.399785  31.416381
  10733.880  10733.850  0.500  1.452443  83.629441  134.306582  31.427447
  10738.360  10738.340  0.500  1.451138  83.538175  134.183286  31.439604
  10742.869  10742.850  0.500  1.450138  83.388919  133.977270  31.422757
  10747.397  10747.380  0.500  1.448919  83.337284  133.927737  31.449459
  10751.959  10751.930  0.500  1.447791  83.247341  133.819053  31.459389
  10756.519  10756.500  0.500  1.446603  83.153584  133.696400  31.467914
  10761.114  10761.080  0.500  1.445316  83.051953  133.563387  31.477083
  10765.713  10765.690  0.500  1.444243  82.949647  133.439776  31.481726
  10770.341  10770.310  0.500  1.443159  82.864429  133.314908  31.486388
  10774.993  10774.960  0.500  1.441936  82.761085  133.183127  31.493738
  10779.649  10779.620  0.500  1.440850  82.670667  133.067558  31.500601
  10784.335  10784.300  0.500  1.439690  82.533451  132.905290  31.498704
  10789.029  10789.000  0.500  1.438564  82.395680  132.715818  31.489263
  10793.753  10793.720  0.500  1.437462  82.416334  132.782481  31.539793
  10798.497  10798.460  0.500  1.436282  82.481678  132.924111  31.610709
  10803.240  10803.210  0.500  1.435162  82.410023  132.832012  31.624216
  10808.027  10807.990  0.500  1.433984  81.380393  131.211791  31.275291
  10812.814  10812.790  0.500  1.432786  82.228400  132.614797  31.647616
  10817.656  10817.600  0.500  1.431810  82.166914  132.547845  31.662508
  10822.446  10822.430  0.500  1.430659  82.057373  132.398989  31.663383
  10827.327  10827.290  0.500  1.429303  81.910024  132.185987  31.655328
  10832.188  10832.160  0.500  1.428287  81.837439  132.093239  31.665288
  10837.067  10837.050  0.500  1.427139  81.750279  131.993481  31.677719
  10841.993  10841.960  0.500  1.425975  81.649386  131.877073  31.686637
  10846.922  10846.890  0.500  1.424651  81.461219  131.609544  31.664249
  10851.872  10851.830  0.500  1.423364  81.453374  131.618644  31.707237
  10856.821  10856.800  0.500  1.421984  81.357450  131.506116  31.723863
  10861.826  10861.790  0.500  1.420887  81.100148  131.140501  31.670389
  10866.825  10866.790  0.500  1.419548  81.136522  131.225655  31.733424
  10871.840  10871.820  0.500  1.418447  81.068429  131.142101  31.748162
  10876.905  10876.860  0.500  1.417241  80.822982  130.779008  31.698462
  10881.944  10881.920  0.500  1.416069  80.862760  130.871774  31.758144
  10887.024  10887.000  0.500  1.414877  80.762892  130.742102  31.764519
  10892.130  10892.100  0.500  1.413684  80.657446  130.614399  31.771370
  10897.255  10897.220  0.500  1.412177  80.552020  130.489978  31.788978
  10902.401  10902.360  0.500  1.410846  80.458096  130.364866  31.800787
  10907.552  10907.520  0.500  1.409513  80.351749  130.209966  31.805385
  10912.729  10912.700  0.500  1.408179  80.256245  130.090735  31.818657
  10917.921  10917.890  0.500  1.406956  80.093227  129.866347  31.802666
  10923.144  10923.110  0.500  1.405782  80.053152  129.829925  31.831076
  10928.372  10928.340  0.500  1.404348  79.938383  129.700579  31.845006
  10933.616  10933.590  0.500  1.403052  79.839767  129.568450  31.853813
  10938.890  10938.860  0.500  1.401683  79.734169  129.440650  31.865997
  10944.185  10944.150  0.500  1.400388  79.630020  129.298376  31.872231
  10949.496  10949.460  0.500  1.399032  79.513826  129.146914  31.878084
  10954.828  10954.790  0.500  1.397741  79.414583  129.023490  31.888756
  10960.165  10960.140  0.500  1.396414  79.315431  128.897765  31.899996
  10965.550  10965.510  0.500  1.395001  79.213409  128.766743  31.912619
  10970.923  10970.890  0.500  1.393774  79.109001  128.623858  31.916338
  10976.334  10976.300  0.500  1.392441  79.005240  128.481180  31.923466
  10981.750  10981.720  0.500  1.391220  78.872804  128.307274  31.919197
  10987.193  10987.170  0.500  1.389902  78.792108  128.209103  31.936837
  10992.672  10992.630  0.500  1.388438  78.686050  128.062698  31.947112
  10998.136  10998.110  0.500  1.387186  78.568886  127.915661  31.950398
  11003.632  11003.610  0.500  1.385775  78.467416  127.778410  31.961208
  11009.165  11009.130  0.500  1.384444  78.359317  127.648468  31.971207
  11014.693  11014.670  0.500  1.383192  78.169024  127.370683  31.941622
  11020.258  11020.220  0.500  1.381907  78.137257  127.358085  31.979526
  11025.824  11025.800  0.500  1.380479  78.028349  127.217779  31.989949
  11031.422  11031.400  0.500  1.379171  77.916188  127.069666  31.994517
  11037.047  11037.010  0.500  1.377802  77.805325  126.918252  32.000160
  11042.667  11042.650  0.500  1.376448  77.676094  126.747826  32.000484
  11048.325  11048.300  0.500  1.375052  77.565652  126.607990  32.009847
  11053.994  11053.970  0.500  1.373703  77.474456  126.495349  32.024541
  11059.684  11059.660  0.500  1.372401  77.333287  126.282221  32.012251
