# XDI/1.0 BlueSky/1.5.3
# Beamline.name: 6BM
# Beamline.xray_source: NSLS-II three-pole wiggler
# Beamline.collimation: paraboloid mirror, 5 nm Rh on 30 nm Pt
# Beamline.focusing: not in use
# Beamline.harmonic_rejection: flat mirror, Pt stripe, pitch = 7.0 mrad relative to beam
# Detector.i0: 10 cm N2
# Detector.I1: 25 cm N2
# Detector.I2: 25 cm N2
# Element.symbol: W
# Element.edge: L3
# Facility.name: NSLS-II
# Facility.energy: 3.0
# Facility.current: 400.2
# Facility.mode: top-off
# Facility.GUP: 305832
# Facility.SAF: 305669
# Facility.cycle: 2020-1
# Mono.name: Si(111)
# Mono.d_spacing: 3.1353241
# Mono.encoder_resolution: 0.0000050 deg/ct
# Mono.angle_offset: 16.0581090 deg
# Mono.scan_mode: fixed exit
# Mono.scan_type: step
# Mono.direction: forward in energy
# Sample.name: W
# Sample.prep: X
# Sample.x_position: -7.603 mm
# Sample.y_position: 102.894 mm
# Scan.experimenters: Neil Hyatt, Martin Stennett, Dan Austin, Seb Lawson
# Scan.edge_energy: 10206.8
# Scan.start_time: 2020-03-07T06:29:04
# Scan.end_time: 2020-03-07T06:40:30
# Scan.transient_id: 23475
# Scan.uid: 345fc664-76d0-4446-b4da-d8e219ee986d
# Scan.plot_hint: ln(i0/itrans)  --  ln($5/$6)
# Column.1: energy eV
# Column.2: requested_energy eV
# Column.3: measurement_time seconds
# Column.4: mutrans 
# Column.5: i0
# Column.6: itrans
# Column.7: irefer
# ///////////
# 
# -----------
#  energy  requested_energy  measurement_time  mutrans  i0  itrans  irefer
10006.798  10006.800  1.000  0.354076  105.750028  74.217635  19.653985
10016.881  10016.800  1.000  0.351404  105.364529  74.144979  19.684718
10026.898  10026.800  1.000  0.348975  105.006893  74.072970  19.722270
10036.862  10036.800  1.000  0.346313  101.453618  71.757251  19.166654
10046.841  10046.800  1.000  0.344077  104.376948  73.990173  19.882569
10056.832  10056.800  1.000  0.341715  104.023451  73.913931  19.994789
10066.847  10066.800  1.000  0.339374  103.641957  73.815478  20.080015
10076.839  10076.800  1.000  0.337084  103.264161  73.715019  20.138883
10086.838  10086.800  1.000  0.334664  102.923617  73.649937  20.211880
10096.835  10096.800  1.000  0.332408  102.515730  73.523742  20.259609
10106.831  10106.800  1.000  0.330145  102.186992  73.454036  20.313168
10116.828  10116.800  1.000  0.327969  101.852035  73.372685  20.358622
10126.780  10126.800  1.000  0.325930  101.554044  73.307372  20.402534
10136.809  10136.800  1.000  0.324537  101.124392  73.098989  20.416660
10146.801  10146.800  1.000  0.323760  100.747054  72.882802  20.439273
10156.794  10156.800  1.000  0.324096  100.373300  72.588040  20.450371
10166.790  10166.800  1.000  0.327224  99.948163  72.054818  20.392041
10176.797  10176.800  1.000  0.336603  99.603212  71.135827  20.217295
10178.775  10178.800  1.000  0.340034  99.520193  70.833139  20.148961
10180.772  10180.800  1.000  0.344507  99.462962  70.476408  20.065290
10182.774  10182.800  1.000  0.349889  99.376298  70.037094  19.954565
10184.776  10184.800  1.000  0.357023  99.292088  69.480254  19.809356
10186.775  10186.800  1.000  0.366419  99.209731  68.773403  19.625395
10188.775  10188.800  1.000  0.379291  99.111114  67.826318  19.369210
10190.780  10190.800  1.000  0.396567  99.017447  66.601647  19.036647
10192.781  10192.800  1.000  0.421458  98.712349  64.764110  18.522524
10194.783  10194.800  1.000  0.459458  98.888740  62.460663  17.875228
10196.786  10196.800  1.000  0.519785  98.808229  58.756176  16.828218
10197.012  10197.050  1.000  0.529395  98.832851  58.208728  16.671504
10197.255  10197.300  1.000  0.540067  98.833888  57.591426  16.498040
10197.516  10197.550  1.000  0.552028  98.807257  56.891354  16.298513
10197.772  10197.800  1.000  0.565461  98.765331  56.108399  16.075792
10198.020  10198.050  1.000  0.579151  98.801504  55.365777  15.862280
10198.272  10198.300  1.000  0.594070  98.781191  54.534698  15.625255
10198.533  10198.550  1.000  0.610792  98.758254  53.617887  15.363581
10198.777  10198.800  1.000  0.627604  98.741508  52.715090  15.104946
10199.029  10199.050  1.000  0.646637  98.725920  51.713088  14.819314
10199.290  10199.300  1.000  0.667993  98.719216  50.616970  14.509434
10199.538  10199.550  1.000  0.689905  98.822045  49.571462  14.211932
10199.790  10199.800  1.000  0.713100  99.015159  48.529576  13.911524
10200.042  10200.050  1.000  0.740135  98.981789  47.219204  13.538741
10200.295  10200.300  1.000  0.769489  98.975947  45.850587  13.146605
10200.538  10200.550  1.000  0.800805  99.017897  44.455800  12.748730
10200.795  10200.800  1.000  0.837872  99.004457  42.832336  12.283985
10201.047  10201.050  1.000  0.877742  98.997742  41.155406  11.804472
10201.290  10201.300  1.000  0.921765  98.987535  39.378866  11.295307
10201.552  10201.550  1.000  0.972946  98.969313  37.407242  10.729217
10201.800  10201.800  1.000  1.029003  98.953228  35.362215  10.146931
10202.038  10202.050  1.000  1.089636  98.915771  33.269235  9.547460
10202.295  10202.300  1.000  1.161279  98.940627  30.976867  8.890872
10202.548  10202.550  1.000  1.240852  98.923803  28.602611  8.209298
10202.796  10202.800  1.000  1.325259  98.914257  26.284883  7.545931
10203.048  10203.050  1.000  1.423826  98.879578  23.809320  6.837195
10203.296  10203.300  1.000  1.529879  98.865549  21.410515  6.149188
10203.544  10203.550  1.000  1.644693  98.868583  19.088739  5.483667
10203.801  10203.800  1.000  1.774451  98.833070  16.759775  4.815279
10204.040  10204.050  1.000  1.899878  98.823865  14.782756  4.247961
10204.283  10204.300  1.000  2.038046  98.797098  12.871586  3.697535
10204.554  10204.550  1.000  2.192810  98.771509  11.023170  3.167711
10204.784  10204.800  1.000  2.334731  98.751901  9.562792  2.745626
10205.041  10205.050  1.000  2.488259  98.748293  8.201487  2.353549
10205.293  10205.300  1.000  2.637605  98.737863  7.062954  2.024916
10205.541  10205.550  1.000  2.773780  98.712329  6.162178  1.766736
10205.794  10205.800  1.000  2.903460  98.691057  5.411545  1.548511
10206.046  10206.050  1.000  3.013531  98.647491  4.845363  1.385998
10206.290  10206.300  1.000  3.100752  98.612167  4.439058  1.266816
10206.556  10206.550  1.000  3.169975  98.599152  4.141621  1.180930
10206.795  10206.800  1.000  3.208292  98.536213  3.983388  1.134535
10207.048  10207.050  1.000  3.224352  98.528253  3.919606  1.115598
10207.296  10207.300  1.000  3.216262  98.530598  3.951540  1.121727
10207.540  10207.550  1.000  3.189842  98.485960  4.055493  1.150943
10207.806  10207.800  1.000  3.143013  98.461771  4.248880  1.205958
10208.058  10208.050  1.000  3.084801  98.436359  4.502394  1.276659
10208.298  10208.300  1.000  3.019239  98.369605  4.804212  1.361968
10208.564  10208.550  1.000  2.943888  98.365290  5.179974  1.468443
10208.803  10208.800  1.000  2.870146  98.361319  5.576168  1.580782
10209.056  10209.050  1.000  2.790178  98.344890  6.039386  1.713460
10209.313  10209.300  1.000  2.707749  98.307381  6.555802  1.860544
10209.552  10209.550  1.000  2.632143  98.288897  7.069350  2.005935
10209.800  10209.800  1.000  2.556516  98.216905  7.619131  2.162698
10210.053  10210.050  1.000  2.481918  98.214886  8.209070  2.333617
10210.292  10210.300  1.000  2.413348  98.176867  8.788315  2.497879
10210.554  10210.550  1.000  2.344913  98.163566  9.409526  2.676770
10210.793  10210.800  1.000  2.285127  98.128961  9.985713  2.841402
10211.046  10211.050  1.000  2.227030  98.147495  10.585038  3.013550
10211.295  10211.300  1.000  2.172736  98.133309  11.174013  3.183391
10211.538  10211.550  1.000  2.125322  98.103400  11.713009  3.337492
10211.796  10211.800  1.000  2.077814  98.080368  12.280021  3.500564
10212.049  10212.050  1.000  2.037250  98.074920  12.787679  3.647469
10212.288  10212.300  1.000  2.001070  98.034479  13.253335  3.781861
10212.545  10212.550  1.000  1.966483  98.025837  13.718537  3.916325
10212.785  10212.800  1.000  1.937673  98.007636  14.116891  4.032184
10213.051  10213.050  1.000  1.908112  97.977627  14.535977  4.152095
10213.300  10213.300  1.000  1.882612  98.016589  14.917351  4.262722
10213.544  10213.550  1.000  1.861605  97.901350  15.216123  4.349925
10213.810  10213.800  1.000  1.840900  97.896442  15.533672  4.440209
10214.040  10214.050  1.000  1.823983  97.904051  15.799916  4.518034
10214.303  10214.300  1.000  1.807517  97.892941  16.060418  4.594482
10214.551  10214.550  1.000  1.793398  97.875532  16.285886  4.660564
10214.799  10214.800  1.000  1.780541  97.878067  16.497056  4.721558
10215.071  10215.050  1.000  1.768162  97.869801  16.701119  4.780748
10215.301  10215.300  1.000  1.758104  97.853271  16.867102  4.829589
10215.554  10215.550  1.000  1.748113  97.825915  17.031698  4.875694
10215.816  10215.800  1.000  1.738586  97.820929  17.193862  4.924790
10216.051  10216.050  1.000  1.729944  97.777720  17.335444  4.965768
10216.313  10216.300  1.000  1.720933  97.749687  17.487332  5.009602
10216.553  10216.550  1.000  1.712683  97.761382  17.634319  5.051627
10216.801  10216.800  1.000  1.704521  97.780922  17.782380  5.093465
10217.055  10217.050  1.000  1.696447  97.726663  17.916591  5.134795
10217.303  10217.300  1.000  1.688635  97.731985  18.058083  5.176222
10217.552  10217.550  1.000  1.680580  97.698378  18.197884  5.215471
10217.800  10217.800  1.000  1.672363  97.683371  18.345199  5.259418
10218.040  10218.050  1.000  1.664034  97.690582  18.500005  5.303455
10218.302  10218.300  1.000  1.654962  97.669454  18.664571  5.350873
10218.542  10218.550  1.000  1.646431  97.673530  18.825269  5.398288
10218.795  10218.800  1.000  1.637182  97.643591  18.994352  5.444648
10219.044  10219.050  1.000  1.627865  97.621642  19.167845  5.497570
10219.288  10219.300  1.000  1.618250  97.649391  19.358545  5.551968
10219.550  10219.550  1.000  1.608117  97.603430  19.546482  5.606146
10219.795  10219.800  1.000  1.598543  97.590050  19.731827  5.663236
10220.043  10220.050  1.000  1.588874  97.581601  19.921811  5.718481
10220.301  10220.300  1.000  1.579038  97.550111  20.112224  5.772834
10220.541  10220.550  1.000  1.570108  97.536340  20.289784  5.824976
10220.799  10220.800  1.000  1.560514  97.487532  20.475124  5.879886
10221.057  10221.050  1.000  1.551437  97.518915  20.668468  5.934436
10221.301  10221.300  1.000  1.543070  97.517836  20.841894  5.985874
10221.554  10221.550  1.000  1.534687  97.492332  21.011849  6.034517
10221.798  10221.800  1.000  1.527072  97.451851  21.163685  6.080177
10222.056  10222.050  1.000  1.519221  97.456741  21.331554  6.127724
10222.305  10222.300  1.000  1.511831  97.795302  21.564431  6.196556
10222.554  10222.550  1.000  1.505009  97.797086  21.712446  6.239543
10222.803  10222.800  1.000  1.498336  97.776372  21.853198  6.279653
10223.047  10223.050  1.000  1.492360  97.752215  21.978744  6.318345
10223.310  10223.300  1.000  1.486329  97.755826  22.112513  6.356647
10223.563  10223.550  1.000  1.480718  97.753390  22.236393  6.392823
10223.799  10223.800  1.000  1.475981  97.764746  22.344569  6.425263
10224.048  10224.050  1.000  1.471313  97.760434  22.448125  6.456140
10224.301  10224.300  1.000  1.466817  97.756348  22.548329  6.484686
10224.546  10224.550  1.000  1.462806  97.794515  22.647793  6.514333
10224.804  10224.800  1.000  1.458505  97.768918  22.739466  6.540562
10225.053  10225.050  1.000  1.454842  97.703756  22.807707  6.561059
10225.311  10225.300  1.000  1.450755  97.718913  22.904664  6.591105
10225.542  10225.550  1.000  1.446459  97.732560  23.006474  6.619243
10225.786  10225.800  1.000  1.442338  97.707774  23.095634  6.645980
10226.053  10226.050  1.000  1.437404  97.738003  23.217040  6.683106
10226.293  10226.300  1.000  1.432838  97.713728  23.317508  6.712190
10226.538  10226.550  1.000  1.428012  97.658784  23.417132  6.740513
10226.791  10226.800  1.000  1.423084  97.625080  23.524684  6.773849
10227.036  10227.050  1.000  1.418426  97.589935  23.626013  6.803877
10227.303  10227.300  1.000  1.412839  97.594721  23.759553  6.843231
10227.552  10227.550  1.000  1.407753  97.613587  23.885310  6.877899
10227.797  10227.800  1.000  1.402924  97.595471  23.996482  6.912019
10228.060  10228.050  1.000  1.398017  97.610684  24.118282  6.946355
10228.300  10228.300  1.000  1.393852  97.652497  24.229302  6.979275
10228.554  10228.550  1.000  1.389575  97.677618  24.339430  7.014580
10228.803  10228.800  1.000  1.385894  97.585189  24.406067  7.032078
10229.047  10229.050  1.000  1.382695  97.573172  24.481254  7.056164
10229.315  10229.300  1.000  1.379480  97.575076  24.560559  7.078786
10229.550  10229.550  1.000  1.376972  97.557073  24.617692  7.096145
10229.804  10229.800  1.000  1.374865  97.563729  24.671311  7.113082
10230.058  10230.050  1.000  1.373069  97.475011  24.693183  7.120849
10230.303  10230.300  1.000  1.371516  97.459250  24.727564  7.129341
10230.561  10230.550  1.000  1.370183  97.440837  24.755854  7.139748
10230.801  10230.800  1.000  1.369361  97.428695  24.773136  7.146276
10231.050  10231.050  1.000  1.368656  97.393876  24.781737  7.150946
10231.313  10231.300  1.000  1.368048  97.362668  24.788862  7.150563
10231.554  10231.550  1.000  1.367596  97.374931  24.803205  7.157775
10231.803  10231.800  1.000  1.367368  97.359435  24.804905  7.156866
10232.052  10232.050  1.000  1.367019  97.344699  24.809816  7.160959
10232.288  10232.300  1.000  1.366979  97.301394  24.799781  7.158865
10232.556  10232.550  1.000  1.366720  97.297216  24.805128  7.161283
10232.796  10232.800  1.000  1.366714  97.248612  24.792897  7.157356
10233.041  10233.050  1.000  1.366202  97.270833  24.811246  7.163462
10233.299  10233.300  1.000  1.365750  97.293670  24.828297  7.168993
10233.535  10233.550  1.000  1.365032  97.294807  24.846429  7.173864
10233.798  10233.800  1.000  1.364174  97.292095  24.867056  7.180297
10234.043  10234.050  1.000  1.362979  97.321781  24.904384  7.191311
10234.288  10234.300  1.000  1.361856  97.283819  24.922653  7.197724
10234.551  10234.550  1.000  1.360503  97.248787  24.947395  7.206742
10234.791  10234.800  1.000  1.358739  97.281038  24.999743  7.222368
10235.055  10235.050  1.000  1.356988  97.254966  25.036827  7.230296
10235.309  10235.300  1.000  1.355236  97.258880  25.081736  7.246691
10235.545  10235.550  1.000  1.353318  97.280122  25.135390  7.264439
10235.803  10235.800  1.000  1.351377  97.270005  25.181602  7.276928
10236.053  10236.050  1.000  1.349822  97.186686  25.199181  7.281828
10236.293  10236.300  1.000  1.347913  97.169153  25.242787  7.295942
10236.565  10236.550  1.000  1.345912  97.179665  25.296073  7.311386
10236.801  10236.800  1.000  1.344409  97.140558  25.323936  7.321061
10237.904  10237.880  1.000  1.338964  97.104950  25.452859  7.361369
10238.998  10238.980  1.000  1.336659  97.061653  25.500224  7.378471
10240.093  10240.090  1.000  1.336958  96.850859  25.437228  7.362749
10241.223  10241.230  1.000  1.337474  96.732337  25.393017  7.353658
10242.400  10242.380  1.000  1.337012  96.977563  25.469151  7.377060
10243.590  10243.560  1.000  1.333516  96.930945  25.546061  7.402703
10244.772  10244.750  1.000  1.326449  96.898873  25.718717  7.456218
10245.972  10245.960  1.000  1.316283  96.853912  25.969438  7.532865
10247.200  10247.190  1.000  1.304105  96.785527  26.269090  7.623130
10248.446  10248.440  1.000  1.291836  96.727620  26.577457  7.715810
10249.720  10249.710  1.000  1.282756  96.675494  26.805419  7.787568
10251.021  10251.000  1.000  1.278987  96.619326  26.891001  7.814674
10252.332  10252.310  1.000  1.281742  96.572230  26.803936  7.793676
10253.647  10253.630  1.000  1.290274  96.509392  26.558945  7.729348
10254.986  10254.980  1.000  1.301774  96.457057  26.241012  7.638540
10256.348  10256.340  1.000  1.314398  96.408620  25.898832  7.541729
10257.738  10257.730  1.000  1.326607  96.374947  25.575617  7.449945
10259.151  10259.130  1.000  1.336567  96.373985  25.321897  7.377995
10260.569  10260.550  1.000  1.343720  96.288133  25.119009  7.323968
10262.001  10261.990  1.000  1.346759  96.163530  25.010398  7.295045
10263.465  10263.450  1.000  1.345351  96.165367  25.046107  7.309603
10264.934  10264.930  1.000  1.340635  96.115804  25.151520  7.342844
10266.449  10266.430  1.000  1.334740  96.034179  25.278756  7.386377
10267.956  10267.940  1.000  1.329505  95.989794  25.399697  7.424989
10269.490  10269.480  1.000  1.325479  95.930608  25.486435  7.455969
10271.044  10271.040  1.000  1.322250  95.835372  25.543464  7.477883
10272.638  10272.610  1.000  1.319788  95.793887  25.595354  7.493910
10274.216  10274.200  1.000  1.318569  95.447084  25.533786  7.482373
10275.816  10275.810  1.000  1.319044  95.598923  25.562273  7.498136
10277.463  10277.450  1.000  1.321033  95.608513  25.514041  7.485921
10279.110  10279.100  1.000  1.324957  95.538045  25.395396  7.456759
10280.780  10280.770  1.000  1.330285  95.685397  25.299398  7.433433
10282.461  10282.450  1.000  1.335415  95.743900  25.185329  7.404094
10284.178  10284.160  1.000  1.340297  95.687298  25.047854  7.368394
10285.901  10285.890  1.000  1.342690  95.612654  24.968499  7.348319
10287.647  10287.630  1.000  1.341135  95.558554  24.993212  7.359646
10289.417  10289.400  1.000  1.335023  95.437521  25.114580  7.401571
10291.187  10291.180  1.000  1.325811  95.376628  25.330831  7.470604
10292.986  10292.980  1.000  1.314505  95.343098  25.609850  7.556399
10294.822  10294.800  1.000  1.305092  95.274186  25.833366  7.631227
10296.659  10296.640  1.000  1.299002  95.170342  25.962834  7.672561
10298.510  10298.500  1.000  1.296642  95.051567  25.991713  7.687654
10300.393  10300.380  1.000  1.297579  94.957629  25.941694  7.678524
10302.292  10302.280  1.000  1.300493  94.887609  25.847133  7.656022
10304.218  10304.200  1.000  1.303648  94.823571  25.748348  7.631986
10306.132  10306.130  1.000  1.305358  94.746353  25.683422  7.617117
10308.092  10308.090  1.000  1.305335  94.680032  25.666027  7.617560
10310.086  10310.060  1.000  1.304537  94.597501  25.664125  7.623037
10312.075  10312.060  1.000  1.303796  94.512099  25.659962  7.627094
10314.084  10314.070  1.000  1.304024  94.414685  25.627669  7.622043
10316.112  10316.100  1.000  1.305758  94.352039  25.566297  7.608626
10318.168  10318.150  1.000  1.308770  94.264326  25.465711  7.583482
10320.230  10320.220  1.000  1.312398  94.201966  25.356702  7.558680
10322.307  10322.310  1.000  1.316085  94.076578  25.229750  7.525064
10324.417  10324.410  1.000  1.319603  93.918072  25.098792  7.490422
10326.551  10326.540  1.000  1.323739  93.931550  24.998786  7.469950
10328.685  10328.690  1.000  1.327770  93.862309  24.879867  7.437710
10330.862  10330.850  1.000  1.332239  93.754869  24.740567  7.403076
10333.059  10333.030  1.000  1.336441  93.687555  24.619142  7.371343
10335.256  10335.240  1.000  1.339731  93.585698  24.511602  7.342595
10337.464  10337.460  1.000  1.340680  93.499669  24.465848  7.335301
10339.701  10339.700  1.000  1.339804  93.408300  24.463350  7.339530
10341.980  10341.960  1.000  1.337755  93.307670  24.487123  7.351966
10344.251  10344.240  1.000  1.333615  93.181701  24.555505  7.380040
10346.551  10346.540  1.000  1.325601  93.092790  24.729479  7.437418
10348.875  10348.850  1.000  1.314195  92.963440  24.978400  7.518074
10351.204  10351.190  1.000  1.302383  92.896980  25.257129  7.606731
10353.545  10353.540  1.000  1.292862  92.829900  25.480320  7.682974
10355.942  10355.920  1.000  1.286868  92.793999  25.623612  7.732477
10358.316  10358.310  1.000  1.283249  92.679093  25.684649  7.756058
10360.734  10360.720  1.000  1.281356  92.555128  25.698915  7.767156
10363.162  10363.150  1.000  1.280985  92.470260  25.684862  7.768635
10365.620  10365.600  1.000  1.281964  92.321613  25.618497  7.753894
10368.083  10368.070  1.000  1.283073  92.258110  25.572489  7.747424
10370.580  10370.560  1.000  1.282943  92.192376  25.557591  7.748715
10373.083  10373.070  1.000  1.282405  92.039583  25.528961  7.746478
10375.592  10375.590  1.000  1.282220  91.904158  25.496132  7.744841
10378.167  10378.140  1.000  1.282617  91.778390  25.451113  7.735854
10380.716  10380.700  1.000  1.283087  91.674500  25.410380  7.728999
10383.303  10383.290  1.000  1.283386  91.593946  25.380447  7.726195
10385.910  10385.890  1.000  1.284333  91.436102  25.312728  7.713420
10388.519  10388.510  1.000  1.288247  91.367753  25.194998  7.682694
10391.147  10391.150  1.000  1.297255  91.236855  24.933282  7.612650
10393.829  10393.810  1.000  1.310389  91.143145  24.582684  7.510591
10396.512  10396.490  1.000  1.325579  91.041239  24.185024  7.397237
10399.206  10399.190  1.000  1.338944  90.929816  23.834743  7.298166
10401.934  10401.910  1.000  1.347568  90.853202  23.610155  7.230122
10404.649  10404.640  1.000  1.347274  90.722169  23.583036  7.227866
10407.403  10407.400  1.000  1.336719  90.625481  23.807873  7.301769
10410.197  10410.170  1.000  1.315482  90.526609  24.292347  7.460717
10412.973  10412.970  1.000  1.289862  90.409220  24.890453  7.652448
10415.797  10415.780  1.000  1.267015  90.252974  25.421663  7.824975
10418.638  10418.610  1.000  1.253733  90.147647  25.731505  7.928130
10421.465  10421.460  1.000  1.248990  90.012064  25.814941  7.961009
10424.356  10424.330  1.000  1.250263  89.937831  25.760849  7.951684
10427.243  10427.220  1.000  1.254380  89.820830  25.621636  7.918145
10430.137  10430.120  1.000  1.257729  89.693156  25.499662  7.886757
10433.075  10433.050  1.000  1.258992  89.563050  25.430533  7.872468
10436.015  10436.000  1.000  1.259079  89.369292  25.373329  7.861985
10438.966  10438.960  1.000  1.259486  89.219704  25.320528  7.857052
10441.965  10441.940  1.000  1.262191  89.142088  25.230163  7.832996
10444.962  10444.950  1.000  1.267798  89.018802  25.054407  7.788818
10448.003  10447.970  1.000  1.273146  88.910393  24.890419  7.741811
10451.032  10451.010  1.000  1.275856  88.811599  24.795485  7.717494
10454.081  10454.070  1.000  1.275852  88.712617  24.767938  7.719162
10457.184  10457.150  1.000  1.275283  88.568926  24.741901  7.720239
10460.261  10460.250  1.000  1.276060  88.425872  24.682759  7.707959
10463.378  10463.360  1.000  1.278921  88.291192  24.574753  7.684284
10466.529  10466.500  1.000  1.282048  88.211534  24.475927  7.659288
10469.669  10469.650  1.000  1.284452  88.073732  24.379005  7.635717
10472.853  10472.830  1.000  1.285952  87.962665  24.311772  7.624177
10476.034  10476.020  1.000  1.286303  87.844822  24.270676  7.619562
10479.246  10479.230  1.000  1.284414  87.675700  24.269747  7.625978
10482.493  10482.460  1.000  1.278847  87.562973  24.373854  7.664883
10485.733  10485.720  1.000  1.270329  87.388241  24.533307  7.726091
10489.008  10488.980  1.000  1.260758  87.295933  24.743072  7.798304
10492.275  10492.270  1.000  1.252660  87.222378  24.923236  7.860791
10495.602  10495.580  1.000  1.246367  87.051935  25.031564  7.904036
10498.932  10498.910  1.000  1.241458  86.895017  25.109406  7.939600
10502.268  10502.250  1.000  1.236117  86.785397  25.212023  7.979524
10505.649  10505.620  1.000  1.232719  86.601987  25.244380  7.998327
10509.013  10509.000  1.000  1.232239  86.842532  25.326649  8.031451
10512.428  10512.400  1.000  1.234681  86.681046  25.217904  8.008519
10515.845  10515.830  1.000  1.237401  86.569988  25.117188  7.981613
10519.288  10519.270  1.000  1.240373  86.412228  24.997017  7.953715
10522.757  10522.730  1.000  1.243692  86.224915  24.860168  7.916916
10526.214  10526.200  1.000  1.246821  86.084271  24.742094  7.886978
10529.726  10529.700  1.000  1.250139  85.959265  24.624313  7.859000
10533.232  10533.220  1.000  1.252658  85.835576  24.527024  7.836957
10536.782  10536.760  1.000  1.254368  85.708684  24.448921  7.820302
10540.326  10540.310  1.000  1.255082  85.580145  24.394822  7.809428
10543.916  10543.890  1.000  1.253860  85.417470  24.378225  7.812261
10547.498  10547.480  1.000  1.250710  85.332774  24.430889  7.837460
10551.107  10551.090  1.000  1.246178  85.179900  24.497899  7.870251
10554.752  10554.720  1.000  1.240700  84.953575  24.567011  7.900903
10558.395  10558.370  1.000  1.235488  84.828560  24.659052  7.938003
10562.060  10562.040  1.000  1.231242  84.873484  24.777103  7.985541
10565.747  10565.730  1.000  1.228371  84.716621  24.802399  8.001851
10569.465  10569.440  1.000  1.225351  84.557920  24.830811  8.021077
10573.186  10573.160  1.000  1.221237  84.352782  24.872691  8.042781
10576.930  10576.910  1.000  1.216116  84.210849  24.958341  8.080917
10580.695  10580.670  1.000  1.211511  84.029190  25.019442  8.110816
10584.473  10584.460  1.000  1.208862  83.748538  25.002029  8.113772
10588.288  10588.260  1.000  1.209016  83.874701  25.035830  8.133291
10592.100  10592.080  1.000  1.210940  83.710830  24.938879  8.111480
10595.940  10595.920  1.000  1.212038  83.558757  24.866271  8.094884
10599.802  10599.780  1.000  1.212096  83.510415  24.850448  8.101185
10603.681  10603.660  1.000  1.211862  83.267677  24.784016  8.088088
10607.588  10607.560  1.000  1.211807  83.204260  24.766498  8.093374
10611.493  10611.480  1.000  1.212119  82.980124  24.692062  8.077975
10615.440  10615.410  1.000  1.212105  82.808668  24.641384  8.071233
10619.380  10619.370  1.000  1.211014  82.424503  24.553854  8.050760
10623.367  10623.340  1.000  1.208745  82.459795  24.620166  8.080361
10627.367  10627.340  1.000  1.206897  82.322533  24.624636  8.094083
10631.384  10631.350  1.000  1.205762  82.122018  24.592570  8.092938
10635.415  10635.380  1.000  1.205614  81.940478  24.541840  8.084931
10639.453  10639.430  1.000  1.205803  81.688981  24.461872  8.067682
10643.530  10643.500  1.000  1.204353  81.611967  24.474278  8.079294
10647.604  10647.590  1.000  1.201508  81.492218  24.507995  8.100693
10651.736  10651.700  1.000  1.197807  81.331491  24.550357  8.126418
10655.846  10655.820  1.000  1.193672  81.128594  24.590571  8.146602
10659.999  10659.970  1.000  1.189453  80.955346  24.641812  8.174445
10664.160  10664.130  1.000  1.185940  80.754980  24.667329  8.190841
10668.359  10668.320  1.000  1.182908  80.640123  24.707054  8.215904
10672.562  10672.520  1.000  1.179753  80.542628  24.755149  8.242882
10676.773  10676.740  1.000  1.177037  79.837692  24.605230  8.202175
10680.972  10680.980  1.000  1.174931  80.159905  24.756602  8.262413
10685.274  10685.240  1.000  1.173535  79.954853  24.727775  8.263831
10689.604  10689.520  1.000  1.171398  79.803990  24.733927  8.273985
10693.838  10693.820  1.000  1.168312  79.651069  24.762817  8.293302
10698.180  10698.140  1.000  1.166354  78.929520  24.586599  8.244554
10702.501  10702.470  1.000  1.166706  79.313806  24.697612  8.292294
10706.875  10706.830  1.000  1.167766  79.161385  24.624029  8.277287
10711.238  10711.200  1.000  1.168040  78.965297  24.556313  8.265807
10715.634  10715.600  1.000  1.167230  78.873056  24.547492  8.272282
10720.039  10720.010  1.000  1.165940  78.756023  24.542710  8.281631
10724.463  10724.440  1.000  1.163684  78.593291  24.547318  8.292226
10728.915  10728.890  1.000  1.161675  78.487606  24.563603  8.308860
10733.396  10733.360  1.000  1.160691  78.258868  24.516136  8.302852
10737.886  10737.850  1.000  1.160076  78.090333  24.478369  8.298414
10742.394  10742.360  1.000  1.159119  77.912995  24.446176  8.298663
10746.927  10746.880  1.000  1.156968  77.743213  24.445434  8.310882
10751.468  10751.430  1.000  1.153825  77.472130  24.436878  8.314629
10756.034  10755.990  1.000  1.150637  77.301211  24.460815  8.335821
10760.618  10760.580  1.000  1.148751  77.180584  24.468743  8.348971
10765.227  10765.180  1.000  1.149261  77.019741  24.405306  8.336789
10769.845  10769.800  1.000  1.150704  76.812246  24.304466  8.312502
10774.466  10774.440  1.000  1.150895  76.618206  24.238447  8.300239
10779.132  10779.100  1.000  1.148206  76.492611  24.263872  8.320118
10783.823  10783.780  1.000  1.141826  76.179906  24.319329  8.349068
10788.507  10788.480  1.000  1.132964  76.073224  24.501445  8.421282
10793.246  10793.200  1.000  1.124847  75.976603  24.669756  8.491949
10797.969  10797.930  1.000  1.119144  75.738655  24.733160  8.522573
10802.737  10802.690  1.000  1.115469  75.542896  24.760058  8.540913
10807.494  10807.460  1.000  1.112397  74.661416  24.546419  8.478984
10812.215  10812.260  1.000  1.111265  75.159579  24.738206  8.559601
10817.112  10817.070  1.000  1.111546  75.099151  24.711373  8.560536
10821.866  10821.900  1.000  1.112544  74.922456  24.628638  8.541849
10826.798  10826.750  1.000  1.114053  74.690213  24.515257  8.511719
10831.668  10831.620  1.000  1.116518  74.619890  24.431878  8.496197
10836.558  10836.510  1.000  1.119522  74.482912  24.313888  8.462181
10841.468  10841.420  1.000  1.122017  74.343825  24.208001  8.436771
10846.418  10846.340  1.000  1.122739  73.862895  24.034044  8.387255
10851.260  10851.290  1.000  1.121073  73.942319  24.100002  8.418073
10856.234  10856.250  1.000  1.116005  73.759514  24.162586  8.452930
10861.285  10861.240  1.000  1.110811  73.683094  24.263240  8.499142
10866.253  10866.240  1.000  1.106460  73.581719  24.335509  8.535099
10871.211  10871.260  1.000  1.103636  73.600075  24.410429  8.573912
10876.368  10876.300  1.000  1.102098  73.313022  24.352644  8.564404
10881.402  10881.360  1.000  1.101216  73.216745  24.342119  8.570891
10886.502  10886.440  1.000  1.100041  73.111711  24.335769  8.580801
10891.530  10891.540  1.000  1.097647  72.925307  24.331917  8.588873
10896.697  10896.660  1.000  1.094005  72.859557  24.398667  8.624639
10901.832  10901.790  1.000  1.089533  72.689409  24.450785  8.655709
10906.988  10906.950  1.000  1.082869  72.461526  24.537103  8.698010
10912.164  10912.120  1.000  1.075697  72.301708  24.659223  8.751602
10917.366  10917.320  1.000  1.070397  72.082351  24.715042  8.782644
10922.579  10922.530  1.000  1.067312  71.829590  24.704471  8.792638
10927.806  10927.760  1.000  1.064537  71.752117  24.746404  8.814993
10933.049  10933.010  1.000  1.061956  71.611671  24.761800  8.833174
10938.241  10938.280  1.000  1.060945  71.465347  24.736208  8.838359
10943.608  10943.570  1.000  1.060564  71.347029  24.704660  8.836970
10948.919  10948.880  1.000  1.060501  71.156642  24.640295  8.828251
