# XDI/1.0 BlueSky/1.10.0 BMM/2023-1.0-py310-tiled
# Beamline.name: BMM (06BM) -- Beamline for Materials Measurement (NIST)
# Beamline.xray_source: NSLS-II three-pole wiggler
# Beamline.collimation: paraboloid mirror, 5 nm Rh on 30 nm Pt
# Beamline.focusing: not in use
# Beamline.harmonic_rejection: flat mirror, Pt stripe, pitch = 7.0 mrad relative to beam
# Beamline.software: Bluesky 1.10.0, Ophyd 1.7.0, DataBroker 2.0.0b13, Python 3.10.8, 2023-1.0-py310-tiled
# Detector.I0: 10 cm N2
# Detector.I1: 25 cm N2
# Detector.I2: 25 cm N2
# Element.symbol: Nb
# Element.edge: K
# Element.reference: Nb
# Element.reference_material: Nb foil
# Facility.name: NSLS-II
# Facility.energy: 3.0
# Facility.current: 400.8
# Facility.mode: top-off
# Facility.GUP: 301027
# Facility.SAF: 310583
# Facility.cycle: 2023-2
# Mono.name: Si(111)
# Mono.d_spacing: 3.1351860
# Mono.encoder_resolution: 0.0000050 deg/ct
# Mono.angle_offset: 16.0754326 deg
# Mono.scan_mode: pseudo channel cut
# Mono.scan_type: step
# Mono.direction: forward in energy
# Sample.name: Nb foil
# Sample.prep: reference foil
# Sample.x: 109.138 mm
# Sample.y: 153.150 mm
# Sample.SDD_position: 205.000 mm
# Scan.experimenters: Bruce Ravel
# Scan.edge_energy: 18985.6
# Scan.start_time: 2023-05-28T22:29:09
# Scan.end_time: 2023-05-28T22:36:22
# Scan.transient_id: 79071
# Scan.uid: 0e664a0a-1f56-47cd-8356-9b6d0ab5ae10
# Scan.plot_hint: ln(It/Ir)  --  ln($6/$7)
# Column.1: energy eV
# Column.2: requested_energy eV
# Column.3: measurement_time seconds
# Column.4: xmu 
# Column.5: I0 nA
# Column.6: It nA
# Column.7: Ir nA
# ///////////
# standard reference foil
# -----------
# energy  requested_energy  measurement_time  xmu  I0  It  Ir
  18785.526  18785.600  0.500  0.155024  10.177695  19.127662  16.380820
  18795.645  18795.600  0.500  0.154899  10.152878  19.088171  16.349047
  18805.651  18805.600  0.500  0.154645  10.129359  19.038285  16.310461
  18815.621  18815.600  0.500  0.154566  10.106689  18.998564  16.277726
  18825.633  18825.600  0.500  0.154451  10.079225  18.949019  16.237135
  18835.609  18835.600  0.500  0.154104  10.052616  18.898865  16.199791
  18845.689  18845.600  0.500  0.154065  10.025881  18.853191  16.161260
  18855.640  18855.600  0.500  0.153783  9.992998  18.793905  16.114985
  18865.710  18865.600  0.500  0.153711  9.969199  18.751306  16.079610
  18875.635  18875.600  0.500  0.153657  9.948293  18.715154  16.049488
  18885.680  18885.600  0.500  0.153447  9.924282  18.664260  16.009192
  18895.642  18895.600  0.500  0.153530  9.897413  18.615786  15.966297
  18905.708  18905.600  0.500  0.153472  9.865604  18.558024  15.917670
  18915.644  18915.600  0.500  0.153681  9.829306  18.494529  15.859898
  18925.716  18925.600  0.500  0.153759  9.815764  18.467946  15.835877
  18935.673  18935.600  0.500  0.154001  9.787978  18.414596  15.786297
  18945.672  18945.600  0.500  0.154629  9.754992  18.354613  15.724995
  18955.619  18955.600  0.500  0.155582  9.729201  18.308693  15.670721
  18957.543  18957.600  0.500  0.155847  9.733461  18.314354  15.671405
  18959.531  18959.600  0.500  0.156209  9.726457  18.300866  15.654198
  18961.567  18961.600  0.500  0.156547  9.717428  18.285206  15.635514
  18963.587  18963.600  0.500  0.157077  9.711362  18.274900  15.618421
  18965.607  18965.600  0.500  0.157656  9.705043  18.268462  15.603885
  18967.613  18967.600  0.500  0.158409  9.703319  18.261403  15.586117
  18969.619  18969.600  0.500  0.158975  9.690709  18.233398  15.553415
  18971.577  18971.600  0.500  0.160172  9.688060  18.234724  15.535929
  18973.615  18973.600  0.500  0.161282  9.686267  18.228520  15.513415
  18975.575  18975.600  0.500  0.162678  9.678619  18.216082  15.481208
  18975.844  18975.900  0.500  0.163041  9.676787  18.208146  15.468843
  18976.176  18976.200  0.500  0.163544  9.680919  18.221564  15.472468
  18976.476  18976.500  0.500  0.163783  9.671280  18.201062  15.451355
  18976.761  18976.800  0.500  0.164054  9.673409  18.208051  15.453103
  18977.061  18977.100  0.500  0.164454  9.673822  18.203696  15.443227
  18977.345  18977.400  0.500  0.164787  9.672266  18.200389  15.435275
  18977.646  18977.700  0.500  0.165220  9.669587  18.198693  15.427162
  18977.946  18978.000  0.500  0.165464  9.663169  18.185848  15.412508
  18978.231  18978.300  0.500  0.166093  9.657067  18.175246  15.393842
  18978.531  18978.600  0.500  0.166222  9.655743  18.168383  15.386050
  18978.863  18978.900  0.500  0.167026  9.645514  18.155536  15.362815
  18979.164  18979.200  0.500  0.167367  9.638128  18.141459  15.345666
  18979.448  18979.500  0.500  0.167790  9.632547  18.127684  15.327530
  18979.717  18979.800  0.500  0.168479  9.630585  18.127748  15.317030
  18980.049  18980.100  0.500  0.169145  9.627128  18.117226  15.297940
  18980.349  18980.400  0.500  0.169569  9.622815  18.112656  15.287599
  18980.666  18980.700  0.500  0.170296  9.624081  18.109363  15.273715
  18980.966  18981.000  0.500  0.171480  9.617915  18.099515  15.247339
  18981.282  18981.300  0.500  0.172011  9.615419  18.097331  15.237402
  18981.567  18981.600  0.500  0.172986  9.622543  18.111699  15.234641
  18981.868  18981.900  0.500  0.174086  9.621279  18.108159  15.214924
  18982.168  18982.200  0.500  0.175026  9.627321  18.112873  15.204585
  18982.453  18982.500  0.500  0.176028  9.631198  18.120608  15.195837
  18982.769  18982.800  0.500  0.177593  9.630322  18.124781  15.175566
  18983.054  18983.100  0.500  0.178818  9.635983  18.135501  15.165955
  18983.370  18983.400  0.500  0.180515  9.639691  18.140523  15.144431
  18983.671  18983.700  0.500  0.182631  9.638682  18.139502  15.111569
  18983.955  18984.000  0.500  0.184433  9.642784  18.148505  15.091857
  18984.256  18984.300  0.500  0.186505  9.639360  18.141791  15.055049
  18984.572  18984.600  0.500  0.188988  9.643529  18.147162  15.022158
  18984.857  18984.900  0.500  0.191980  9.647523  18.156378  14.984886
  18985.189  18985.200  0.500  0.195454  9.647463  18.156208  14.932774
  18985.474  18985.500  0.500  0.199048  9.645500  18.154960  14.878175
  18985.806  18985.800  0.500  0.203396  9.645322  18.156026  14.814499
  18986.107  18986.100  0.500  0.207771  9.644902  18.155111  14.749085
  18986.376  18986.400  0.500  0.212254  9.646273  18.152071  14.680657
  18986.661  18986.700  0.500  0.217760  9.646827  18.158014  14.604821
  18986.962  18987.000  0.500  0.223255  9.643892  18.153300  14.521024
  18987.278  18987.300  0.500  0.229599  9.644806  18.152859  14.428848
  18987.579  18987.600  0.500  0.235487  9.643957  18.151370  14.342959
  18987.895  18987.900  0.500  0.242295  9.640678  18.142998  14.239071
  18988.180  18988.200  0.500  0.248335  9.645768  18.157613  14.164727
  18988.465  18988.500  0.500  0.254653  9.647399  18.155617  14.073972
  18988.766  18988.800  0.500  0.260440  9.641497  18.147924  13.986827
  18989.051  18989.100  0.500  0.266294  9.640687  18.143781  13.902021
  18989.383  18989.400  0.500  0.271991  9.640573  18.142901  13.822369
  18989.715  18989.700  0.500  0.277382  9.640685  18.145189  13.749794
  18990.016  18990.000  0.500  0.282233  9.637311  18.142229  13.681017
  18990.317  18990.300  0.500  0.286577  9.636416  18.138997  13.619295
  18990.618  18990.600  0.500  0.290239  9.640282  18.143043  13.572531
  18990.918  18990.900  0.500  0.293654  9.633871  18.133888  13.519441
  18991.203  18991.200  0.500  0.296602  9.633898  18.134494  13.480085
  18991.488  18991.500  0.500  0.299778  9.636931  18.138067  13.439994
  18991.837  18991.800  0.500  0.302853  9.629779  18.130352  13.393035
  18992.122  18992.100  0.500  0.305656  9.630615  18.126118  13.352421
  18992.454  18992.400  0.500  0.308784  9.631772  18.128397  13.312395
  18992.739  18992.700  0.500  0.311887  9.626890  18.124263  13.268128
  18993.008  18993.000  0.500  0.314534  9.630592  18.126192  13.234454
  18993.293  18993.300  0.500  0.317689  9.626656  18.121748  13.189530
  18993.626  18993.600  0.500  0.321403  9.629119  18.126318  13.143957
  18993.911  18993.900  0.500  0.324923  9.623212  18.114103  13.088943
  18994.228  18994.200  0.500  0.328863  9.629174  18.122286  13.043366
  18994.528  18994.500  0.500  0.333383  9.621271  18.115280  12.979515
  18994.829  18994.800  0.500  0.337088  9.622841  18.112540  12.929565
  18995.114  18995.100  0.500  0.341334  9.622903  18.115637  12.876984
  18995.384  18995.400  0.500  0.345233  9.622234  18.114533  12.826086
  18995.685  18995.700  0.500  0.349758  9.624702  18.116791  12.769771
  18996.017  18996.000  0.500  0.354474  9.621677  18.109643  12.704683
  18996.318  18996.300  0.500  0.359544  9.617836  18.106360  12.638138
  18996.635  18996.600  0.500  0.364311  9.613767  18.099099  12.572988
  18996.920  18996.900  0.500  0.369418  9.618023  18.105124  12.513114
  18997.221  18997.200  0.500  0.374538  9.614137  18.099451  12.445309
  18997.490  18997.500  0.500  0.379434  9.619671  18.106642  12.389449
  18997.791  18997.800  0.500  0.385048  9.615458  18.099851  12.315469
  18998.077  18998.100  0.500  0.391190  9.614674  18.098362  12.239045
  18998.409  18998.400  0.500  0.397230  9.616559  18.104011  12.169144
  18998.710  18998.700  0.500  0.403541  9.610600  18.092004  12.084571
  18999.027  18999.000  0.500  0.410321  9.612577  18.092527  12.003254
  18999.328  18999.300  0.500  0.416934  9.609091  18.090531  11.922822
  18999.629  18999.600  0.500  0.423242  9.609669  18.092333  11.849028
  18999.899  18999.900  0.500  0.429417  9.609151  18.091208  11.775362
  19000.168  19000.200  0.500  0.435690  9.608093  18.087538  11.699347
  19000.501  19000.500  0.500  0.442899  9.602776  18.081839  11.611651
  19000.786  19000.800  0.500  0.449150  9.601057  18.077908  11.536785
  19001.103  19001.100  0.500  0.455900  9.601338  18.073043  11.456096
  19001.388  19001.400  0.500  0.461961  9.602146  18.077493  11.389665
  19001.689  19001.700  0.500  0.467638  9.600957  18.071452  11.321409
  19001.975  19002.000  0.500  0.472731  9.598623  18.070694  11.263421
  19002.260  19002.300  0.500  0.477690  9.598231  18.071975  11.208497
  19002.561  19002.600  0.500  0.482405  9.601702  18.076148  11.158352
  19002.878  19002.900  0.500  0.486307  9.595666  18.065059  11.108077
  19003.195  19003.200  0.500  0.490182  9.595132  18.067581  11.066661
  19003.528  19003.500  0.500  0.493373  9.601973  18.078376  11.037996
  19003.797  19003.800  0.500  0.495635  9.598204  18.067997  11.006733
  19004.099  19004.100  0.500  0.497527  9.596684  18.067490  10.985622
  19004.384  19004.400  0.500  0.498553  9.592168  18.057037  10.968003
  19004.669  19004.700  0.500  0.499473  9.591979  18.059902  10.959655
  19004.971  19005.000  0.500  0.499578  9.591064  18.055914  10.956091
  19005.272  19005.300  0.500  0.499499  9.589514  18.054186  10.955908
  19005.605  19005.600  0.500  0.498921  9.588340  18.053103  10.961579
  19005.890  19005.900  0.500  0.497581  9.582258  18.040802  10.968805
  19006.176  19006.200  0.500  0.496574  9.586920  18.047866  10.984150
  19006.445  19006.500  0.500  0.494741  9.583153  18.043897  11.001887
  19006.762  19006.800  0.500  0.493092  9.587707  18.049070  11.023201
  19007.064  19007.100  0.500  0.491169  9.584129  18.044513  11.041629
  19007.365  19007.400  0.500  0.489094  9.583344  18.041823  11.062913
  19007.682  19007.700  0.500  0.487332  9.580662  18.037581  11.079824
  19007.999  19008.000  0.500  0.485524  9.581316  18.042653  11.102994
  19008.285  19008.300  0.500  0.483951  9.578949  18.037448  11.117266
  19008.586  19008.600  0.500  0.482520  9.582295  18.042017  11.136000
  19008.856  19008.900  0.500  0.481377  9.578788  18.030978  11.141913
  19009.173  19009.200  0.500  0.480414  9.582147  18.041256  11.159007
  19009.458  19009.500  0.500  0.479546  9.573364  18.024711  11.158459
  19009.776  19009.800  0.500  0.478967  9.571598  18.018221  11.160900
  19010.109  19010.100  0.500  0.478703  9.567927  18.013998  11.161230
  19010.378  19010.400  0.500  0.478594  9.574431  18.028009  11.171132
  19010.616  19010.600  0.500  0.478768  9.572717  18.023212  11.166210
  19011.584  19011.590  0.500  0.480214  9.573369  18.026622  11.152189
  19012.647  19012.590  0.500  0.482687  9.582421  18.045227  11.136122
  19013.615  19013.610  0.500  0.484914  9.601871  18.076669  11.130714
  19014.742  19014.660  0.500  0.486441  9.595243  18.064334  11.106146
  19015.742  19015.720  0.500  0.487247  9.590510  18.056478  11.092374
  19016.885  19016.800  0.500  0.487466  9.589970  18.056475  11.089940
  19017.948  19017.900  0.500  0.487441  9.585912  18.049049  11.085650
  19019.076  19019.020  0.500  0.487798  9.583642  18.043018  11.077998
  19020.219  19020.160  0.500  0.489682  9.580587  18.040523  11.055611
  19021.362  19021.310  0.500  0.492415  9.577633  18.033289  11.021016
  19022.553  19022.490  0.500  0.495712  9.575633  18.026768  10.980772
  19023.729  19023.680  0.500  0.499945  9.573167  18.025496  10.933617
  19024.952  19024.900  0.500  0.503699  9.564726  18.007375  10.881701
  19026.160  19026.130  0.500  0.507742  9.563948  18.008215  10.838295
  19027.352  19027.380  0.500  0.511007  9.564114  18.008176  10.802949
  19028.702  19028.650  0.500  0.514044  9.557713  17.995717  10.762732
  19029.942  19029.940  0.500  0.514943  9.553749  17.991292  10.750422
  19031.262  19031.250  0.500  0.513438  9.559163  17.999683  10.771636
  19032.581  19032.580  0.500  0.508894  9.548059  17.976181  10.806558
  19033.949  19033.930  0.500  0.502793  9.539191  17.961728  10.863954
  19035.301  19035.300  0.500  0.495864  9.540108  17.963026  10.940283
  19036.732  19036.680  0.500  0.489633  9.535977  17.954216  11.003263
  19038.132  19038.090  0.500  0.485547  9.530212  17.947250  11.044030
  19039.564  19039.510  0.500  0.482957  9.530341  17.944638  11.071055
  19040.965  19040.950  0.500  0.481777  9.525495  17.937053  11.079448
  19042.445  19042.410  0.500  0.482239  9.523687  17.933038  11.071844
  19043.973  19043.890  0.500  0.483589  9.522546  17.933588  11.057250
  19045.454  19045.390  0.500  0.485326  9.513752  17.912130  11.024852
  19046.903  19046.910  0.500  0.486744  9.509057  17.904987  11.004843
  19048.464  19048.450  0.500  0.487276  9.504389  17.896205  10.993594
  19050.040  19050.010  0.500  0.486915  9.497452  17.888255  10.992679
  19051.586  19051.580  0.500  0.485809  9.488262  17.867838  10.992281
  19053.163  19053.180  0.500  0.484547  9.473078  17.840287  10.989193
  19054.805  19054.790  0.500  0.482711  9.478276  17.850892  11.015933
  19056.431  19056.430  0.500  0.481295  9.478345  17.852883  11.032774
  19058.120  19058.080  0.500  0.480424  9.477169  17.849350  11.040203
  19059.811  19059.750  0.500  0.480691  9.471012  17.839693  11.031275
  19061.485  19061.440  0.500  0.482461  9.468393  17.833631  11.008031
  19063.192  19063.150  0.500  0.485389  9.461807  17.822816  10.969195
  19064.931  19064.880  0.500  0.489308  9.456970  17.816642  10.922499
  19066.654  19066.630  0.500  0.493191  9.455214  17.806348  10.873885
  19068.394  19068.390  0.500  0.495792  9.452057  17.802557  10.843332
  19070.181  19070.180  0.500  0.496414  9.445648  17.794049  10.831408
  19071.985  19071.980  0.500  0.495179  9.440598  17.782609  10.837825
  19073.822  19073.810  0.500  0.491650  9.438437  17.777405  10.872949
  19075.674  19075.650  0.500  0.487308  9.431806  17.765324  10.912843
  19077.512  19077.510  0.500  0.483348  9.426273  17.755413  10.950037
  19079.445  19079.390  0.500  0.480376  9.419493  17.743026  10.974965
  19081.315  19081.290  0.500  0.479185  9.416838  17.740053  10.986195
  19083.281  19083.210  0.500  0.478936  9.413936  17.734960  10.985778
  19085.183  19085.150  0.500  0.479484  9.404830  17.716176  10.968130
  19087.166  19087.110  0.500  0.479290  9.401385  17.704008  10.962727
  19089.101  19089.080  0.500  0.479731  9.396795  17.701309  10.956226
  19091.085  19091.080  0.500  0.479750  9.394222  17.697043  10.953373
  19093.085  19093.090  0.500  0.479666  9.385507  17.678973  10.943109
  19095.118  19095.120  0.500  0.479878  9.381616  17.670271  10.935401
  19097.167  19097.180  0.500  0.480754  9.375111  17.659623  10.919244
  19099.248  19099.250  0.500  0.481958  9.375081  17.662001  10.907573
  19101.362  19101.340  0.500  0.483972  9.369302  17.649477  10.877911
  19103.476  19103.450  0.500  0.486028  9.355307  17.624163  10.839999
  19105.655  19105.580  0.500  0.487620  9.349353  17.614122  10.816588
  19107.771  19107.720  0.500  0.487784  9.347246  17.607701  10.810872
  19109.967  19109.890  0.500  0.487190  9.344020  17.603569  10.814758
  19112.067  19112.080  0.500  0.485927  9.334799  17.589801  10.819951
  19114.264  19114.280  0.500  0.483402  9.325005  17.570534  10.835427
  19116.493  19116.500  0.500  0.480611  9.319768  17.558158  10.858063
  19118.788  19118.750  0.500  0.477336  9.305855  17.531409  10.877080
  19121.066  19121.010  0.500  0.474514  9.307982  17.536397  10.910923
  19123.314  19123.290  0.500  0.471922  9.306437  17.534835  10.938268
  19125.610  19125.590  0.500  0.470545  9.302685  17.524867  10.947110
  19127.986  19127.910  0.500  0.469492  9.293952  17.510783  10.949835
  19130.283  19130.250  0.500  0.468801  9.288358  17.504590  10.953529
  19132.613  19132.600  0.500  0.468177  9.275896  17.476630  10.942869
  19134.976  19134.980  0.500  0.468351  9.278757  17.479919  10.943015
  19137.419  19137.370  0.500  0.469293  9.270169  17.472851  10.928295
  19139.799  19139.790  0.500  0.470069  9.264382  17.455509  10.908974
  19142.243  19142.220  0.500  0.471310  9.255200  17.439909  10.885709
  19144.769  19144.670  0.500  0.471966  9.242739  17.413675  10.862215
  19147.183  19147.150  0.500  0.472611  9.240845  17.413996  10.855401
  19149.694  19149.640  0.500  0.472772  9.237444  17.407036  10.849316
  19152.205  19152.150  0.500  0.472494  9.229811  17.395488  10.845137
  19154.685  19154.670  0.500  0.472885  9.223578  17.381042  10.831893
  19157.247  19157.220  0.500  0.474557  9.218055  17.370450  10.807206
  19159.825  19159.790  0.500  0.477314  9.211836  17.360316  10.771166
  19162.404  19162.370  0.500  0.480285  9.202256  17.340505  10.726955
  19165.080  19164.980  0.500  0.482256  9.200106  17.338311  10.704486
  19167.628  19167.600  0.500  0.483430  9.192273  17.323004  10.682478
  19170.273  19170.250  0.500  0.482422  9.180833  17.304173  10.681631
  19172.935  19172.910  0.500  0.479719  9.175505  17.292043  10.703036
  19175.598  19175.590  0.500  0.475729  9.169104  17.278316  10.737299
  19178.294  19178.290  0.500  0.470655  9.155656  17.256727  10.778426
  19181.024  19181.010  0.500  0.465309  9.151494  17.250023  10.832001
  19183.834  19183.750  0.500  0.460350  9.137072  17.218374  10.865872
  19186.565  19186.500  0.500  0.457406  9.128780  17.203393  10.888427
  19189.329  19189.280  0.500  0.456598  9.130133  17.210355  10.901645
  19192.142  19192.070  0.500  0.456628  9.128302  17.206965  10.899162
  19194.891  19194.890  0.500  0.457583  9.121252  17.195079  10.881239
  19197.771  19197.720  0.500  0.458305  9.110089  17.172339  10.859008
  19200.554  19200.570  0.500  0.458826  9.097836  17.149922  10.839184
  19203.532  19203.450  0.500  0.459547  9.095059  17.145953  10.828864
  19206.382  19206.340  0.500  0.460490  9.096349  17.145180  10.818169
  19209.313  19209.250  0.500  0.462086  9.082325  17.118274  10.783970
  19212.213  19212.170  0.500  0.464254  9.072789  17.104547  10.751982
  19215.179  19215.120  0.500  0.466570  9.067100  17.090257  10.718154
  19218.130  19218.090  0.500  0.468373  9.059948  17.079374  10.692034
  19221.065  19221.070  0.500  0.470093  9.048991  17.058214  10.660426
  19224.114  19224.080  0.500  0.470950  9.041496  17.046730  10.644130
  19227.133  19227.100  0.500  0.471564  9.033995  17.031012  10.627782
  19230.217  19230.150  0.500  0.471695  9.019414  17.006084  10.610839
  19233.285  19233.210  0.500  0.471627  9.014957  16.993503  10.603712
  19236.290  19236.290  0.500  0.471046  9.012465  16.988459  10.606729
  19239.377  19239.390  0.500  0.470286  9.004127  16.975448  10.606663
  19242.514  19242.510  0.500  0.468729  8.994133  16.959810  10.613402
  19245.700  19245.650  0.500  0.466653  8.985712  16.941403  10.623919
  19248.856  19248.800  0.500  0.464040  8.978155  16.926390  10.642270
  19252.044  19251.980  0.500  0.461015  8.972486  16.914365  10.666935
  19255.201  19255.170  0.500  0.458817  8.968041  16.907363  10.685980
  19258.425  19258.390  0.500  0.456825  8.957913  16.889988  10.696279
  19261.584  19261.620  0.500  0.455367  8.949906  16.878651  10.704693
  19264.924  19264.870  0.500  0.453712  8.940527  16.859499  10.710264
  19268.232  19268.150  0.500  0.453377  8.931323  16.839848  10.701356
  19271.459  19271.440  0.500  0.453332  8.921418  16.824027  10.691791
  19274.770  19274.750  0.500  0.454594  8.915874  16.812415  10.670938
  19278.114  19278.070  0.500  0.456156  8.908146  16.798965  10.645753
  19281.427  19281.420  0.500  0.457659  8.895743  16.777823  10.616394
  19284.822  19284.790  0.500  0.459075  8.884051  16.753925  10.586271
  19288.219  19288.170  0.500  0.460417  8.875990  16.742681  10.564976
  19291.649  19291.580  0.500  0.461589  8.867585  16.726268  10.542255
  19295.081  19295.000  0.500  0.462191  8.858570  16.707933  10.524361
  19298.465  19298.450  0.500  0.462721  8.849896  16.688793  10.506737
  19301.883  19301.910  0.500  0.462950  8.842979  16.676554  10.496621
  19305.416  19305.390  0.500  0.462430  8.833639  16.659447  10.491307
  19308.951  19308.890  0.500  0.461709  8.825762  16.645537  10.490113
  19312.471  19312.410  0.500  0.460966  8.814981  16.625865  10.485506
  19315.992  19315.950  0.500  0.460137  8.808434  16.615746  10.487814
  19319.547  19319.500  0.500  0.459489  8.795584  16.589285  10.477901
  19323.120  19323.080  0.500  0.458906  8.783603  16.568721  10.471009
  19326.711  19326.680  0.500  0.457740  8.756435  16.517019  10.450515
  19330.368  19330.290  0.500  0.456612  8.768876  16.539286  10.476414
  19334.011  19333.920  0.500  0.455122  8.760707  16.520424  10.480073
  19337.622  19337.580  0.500  0.453926  8.747737  16.503382  10.481786
  19341.284  19341.250  0.500  0.453234  8.743932  16.493636  10.482852
  19344.947  19344.940  0.500  0.452777  8.733232  16.474119  10.475228
  19348.677  19348.650  0.500  0.452401  8.723033  16.452990  10.465729
  19352.442  19352.380  0.500  0.451973  8.712365  16.434823  10.458648
  19356.175  19356.120  0.500  0.451273  8.703097  16.415678  10.453788
  19359.926  19359.890  0.500  0.451186  8.693556  16.402748  10.446458
  19363.744  19363.680  0.500  0.451520  8.683846  16.383918  10.430982
  19367.515  19367.480  0.500  0.451898  8.675008  16.363694  10.414166
  19371.353  19371.310  0.500  0.452435  8.660923  16.343779  10.395912
  19375.192  19375.150  0.500  0.452320  8.651595  16.322599  10.383628
  19379.066  19379.010  0.500  0.452155  8.643874  16.308080  10.376111
  19382.941  19382.890  0.500  0.451896  8.631562  16.283867  10.363386
  19386.818  19386.790  0.500  0.451875  8.619890  16.267815  10.353385
  19390.713  19390.710  0.500  0.451707  8.611117  16.245373  10.340839
  19394.693  19394.650  0.500  0.451991  8.600459  16.231415  10.329022
  19398.657  19398.610  0.500  0.452196  8.587170  16.205933  10.310687
  19402.640  19402.580  0.500  0.452528  8.575927  16.185782  10.294449
  19406.574  19406.580  0.500  0.452345  8.564540  16.162674  10.281638
  19410.593  19410.590  0.500  0.452089  8.559373  16.156174  10.280132
  19414.647  19414.630  0.500  0.451443  8.542922  16.121644  10.264789
  19418.718  19418.680  0.500  0.450807  8.535609  16.107314  10.262187
  19422.809  19422.750  0.500  0.449993  8.523612  16.085693  10.256760
  19426.867  19426.840  0.500  0.449047  8.509831  16.059176  10.249548
  19430.928  19430.950  0.500  0.448505  8.500899  16.046120  10.246762
  19435.139  19435.080  0.500  0.447486  8.493326  16.031048  10.247576
  19439.286  19439.230  0.500  0.447060  8.507037  16.056923  10.268487
  19443.468  19443.390  0.500  0.446689  8.498798  16.039881  10.261400
  19447.619  19447.580  0.500  0.446504  8.488044  16.019446  10.250218
  19451.804  19451.780  0.500  0.446272  8.477849  16.001928  10.241390
  19456.025  19456.010  0.500  0.446098  8.465268  15.979873  10.229048
  19460.297  19460.250  0.500  0.445642  8.456943  15.961441  10.221914
  19464.554  19464.510  0.500  0.445669  8.444001  15.941529  10.208890
  19468.830  19468.790  0.500  0.445270  8.341018  15.743332  10.085984
  19473.108  19473.090  0.500  0.444860  8.406234  15.868295  10.170211
  19477.421  19477.410  0.500  0.444671  8.410918  15.877766  10.178203
  19481.786  19481.750  0.500  0.444529  8.399976  15.859373  10.167864
  19486.120  19486.110  0.500  0.444307  8.391094  15.843317  10.159821
  19490.522  19490.490  0.500  0.444358  8.378898  15.818427  10.143343
  19494.910  19494.880  0.500  0.444027  8.365747  15.795788  10.132175
  19499.333  19499.300  0.500  0.443956  8.354705  15.776325  10.120410
  19503.791  19503.730  0.500  0.443488  8.340950  15.748375  10.107210
  19508.218  19508.180  0.500  0.443700  8.335851  15.741703  10.100786
  19512.698  19512.650  0.500  0.443625  8.322098  15.713154  10.083222
  19517.145  19517.140  0.500  0.443641  8.307420  15.686633  10.066049
  19521.662  19521.650  0.500  0.443433  8.300562  15.671822  10.058633
  19526.215  19526.180  0.500  0.443619  8.286262  15.649197  10.042242
  19530.786  19530.730  0.500  0.443389  8.271510  15.620598  10.026196
  19535.326  19535.300  0.500  0.442614  8.259982  15.602400  10.022278
  19539.885  19539.880  0.500  0.441792  8.251471  15.583692  10.018498
  19544.496  19544.490  0.500  0.440988  8.236923  15.557847  10.009927
  19549.160  19549.110  0.500  0.440199  8.225776  15.538665  10.005471
  19553.809  19553.760  0.500  0.439648  8.214858  15.513645  9.994872
  19558.511  19558.420  0.500  0.439068  8.203232  15.493460  9.987660
  19563.198  19563.100  0.500  0.438713  8.188639  15.468958  9.975406
  19567.871  19567.800  0.500  0.438376  8.178605  15.449734  9.966363
  19572.579  19572.520  0.500  0.437741  8.162839  15.421828  9.954679
  19577.341  19577.260  0.500  0.437407  8.151889  15.398485  9.942935
  19582.121  19582.010  0.500  0.437500  8.141101  15.380499  9.930401
  19586.921  19586.790  0.500  0.437240  8.126433  15.352253  9.914735
  19591.656  19591.590  0.500  0.437122  8.116006  15.331150  9.902278
  19596.460  19596.400  0.500  0.437211  8.101277  15.303237  9.883364
  19601.284  19601.230  0.500  0.436812  8.089694  15.284628  9.875286
  19606.161  19606.090  0.500  0.436417  8.045027  15.197108  9.822627
  19611.107  19610.960  0.500  0.436349  8.009292  15.134803  9.783017
  19615.955  19615.850  0.500  0.436363  8.054170  15.216834  9.835900
  19620.907  19620.760  0.500  0.436216  8.042842  15.195355  9.823462
  19625.777  19625.690  0.500  0.435935  8.030679  15.173603  9.812160
  19630.700  19630.630  0.500  0.435535  8.014773  15.143890  9.796864
  19635.709  19635.600  0.500  0.435416  7.982001  15.087029  9.761235
  19640.705  19640.590  0.500  0.435257  7.987857  15.094678  9.767739
  19645.737  19645.590  0.500  0.434691  7.975423  15.071820  9.758471
  19650.653  19650.620  0.500  0.434243  7.963085  15.049657  9.748484
  19655.741  19655.660  0.500  0.433447  7.949477  15.022051  9.738351
  19660.730  19660.720  0.500  0.432980  7.932880  14.987188  9.720296
  19665.840  19665.800  0.500  0.432231  7.914762  14.951157  9.704188
  19670.970  19670.900  0.500  0.431805  7.904113  14.937295  9.699320
  19676.086  19676.020  0.500  0.431463  7.784261  14.711165  9.555754
  19681.238  19681.160  0.500  0.430791  7.882117  14.896831  9.682865
  19686.444  19686.320  0.500  0.430449  7.874760  14.883756  9.677675
  19691.517  19691.500  0.500  0.430216  7.845509  14.829555  9.644673
  19696.729  19696.690  0.500  0.429765  7.849461  14.836716  9.653683
  19701.960  19701.910  0.500  0.429353  7.833993  14.807884  9.638900
  19707.194  19707.140  0.500  0.429195  7.820459  14.786273  9.626353
  19712.414  19712.390  0.500  0.428791  7.807530  14.757401  9.611434
  19717.756  19717.660  0.500  0.428741  7.784598  14.716626  9.585364
  19722.999  19722.950  0.500  0.428548  7.772294  14.696621  9.574175
  19728.244  19728.260  0.500  0.428505  7.768840  14.686040  9.567697
  19733.664  19733.590  0.500  0.427919  7.755426  14.657925  9.554979
  19739.000  19738.940  0.500  0.427798  7.736810  14.624325  9.534230
  19744.340  19744.310  0.500  0.427480  7.644834  14.455561  9.427197
  19749.734  19749.690  0.500  0.427572  7.706583  14.574428  9.503847
  19755.199  19755.100  0.500  0.427232  7.702499  14.565755  9.501421
  19760.530  19760.520  0.500  0.426795  7.689642  14.541605  9.489816
  19765.985  19765.970  0.500  0.426217  7.673308  14.510698  9.475118
  19771.459  19771.430  0.500  0.425797  7.659737  14.486140  9.463058
  19776.988  19776.910  0.500  0.425522  7.645278  14.459215  9.448063
  19782.503  19782.410  0.500  0.424760  7.632148  14.434000  9.438780
  19788.021  19787.930  0.500  0.424331  7.619048  14.410330  9.427339
  19793.456  19793.470  0.500  0.423731  7.602560  14.379492  9.412811
  19799.066  19799.020  0.500  0.423241  7.588186  14.353532  9.400427
  19804.628  19804.600  0.500  0.423093  7.574255  14.327235  9.384596
  19810.262  19810.200  0.500  0.422562  7.562506  14.301670  9.372826
  19815.864  19815.810  0.500  0.422245  7.548206  14.277637  9.360041
  19821.539  19821.450  0.500  0.421983  7.531757  14.249229  9.343860
  19827.148  19827.100  0.500  0.421601  7.518901  14.225515  9.331873
  19832.829  19832.770  0.500  0.421448  7.502448  14.193643  9.312393
  19838.514  19838.460  0.500  0.420988  7.490506  14.170584  9.301544
