# XDI/1.0 BlueSky/1.10.0 BMM/2023-1.0-py310-tiled
# Beamline.name: BMM (06BM) -- Beamline for Materials Measurement (NIST)
# Beamline.xray_source: NSLS-II three-pole wiggler
# Beamline.collimation: paraboloid mirror, 5 nm Rh on 30 nm Pt
# Beamline.focusing: not in use
# Beamline.harmonic_rejection: flat mirror, Pt stripe, pitch = 7.0 mrad relative to beam
# Beamline.software: Bluesky 1.10.0, Ophyd 1.7.0, DataBroker 2.0.0b13, Python 3.10.8, 2023-1.0-py310-tiled
# Detector.I0: 10 cm N2
# Detector.I1: 25 cm N2
# Detector.I2: 25 cm N2
# Element.symbol: Ni
# Element.edge: K
# Element.reference: Ni
# Element.reference_material: Ni foil
# Facility.name: NSLS-II
# Facility.energy: 3.0
# Facility.current: 400.7
# Facility.mode: top-off
# Facility.GUP: 301027
# Facility.SAF: 310583
# Facility.cycle: 2023-2
# Mono.name: Si(111)
# Mono.d_spacing: 3.1351860
# Mono.encoder_resolution: 0.0000050 deg/ct
# Mono.angle_offset: 16.0754326 deg
# Mono.scan_mode: pseudo channel cut
# Mono.scan_type: step
# Mono.direction: forward in energy
# Sample.name: NiAl2O4
# Sample.prep: powder on tape
# Sample.x: 117.785 mm
# Sample.y: 114.695 mm
# Sample.SDD_position: 205.000 mm
# Scan.experimenters: Bruce Ravel
# Scan.edge_energy: 8332.8
# Scan.start_time: 2023-06-23T15:50:44
# Scan.end_time: 2023-06-23T15:58:56
# Scan.transient_id: 84860
# Scan.uid: 2fdff45e-b7cc-42c2-baab-dea45c8b2b27
# Scan.plot_hint: ln(I0/It)  --  ln($5/$6)
# Column.1: energy eV
# Column.2: requested_energy eV
# Column.3: measurement_time seconds
# Column.4: xmu 
# Column.5: I0 nA
# Column.6: It nA
# Column.7: Ir nA
# ///////////
# BMM standards collection
# -----------
# energy  requested_energy  measurement_time  xmu  I0  It  Ir
  8132.807  8132.800  0.500  0.418079  134.549567  88.575350  34.055951
  8142.815  8142.800  0.500  0.414119  134.264052  88.738126  34.236119
  8152.825  8152.800  0.500  0.410069  134.089127  88.982183  34.451657
  8162.884  8162.800  0.500  0.406175  133.819215  89.149466  34.634564
  8172.857  8172.800  0.500  0.402353  133.609569  89.350726  34.831279
  8182.815  8182.800  0.500  0.398407  133.369272  89.542625  35.025762
  8192.850  8192.800  0.500  0.394462  133.187685  89.774146  35.233359
  8202.864  8202.800  0.500  0.390697  132.961435  89.959691  35.427805
  8212.814  8212.800  0.500  0.386830  132.732643  90.152913  35.620784
  8222.824  8222.800  0.500  0.383000  132.507271  90.345153  35.813423
  8232.818  8232.800  0.500  0.379251  132.313731  90.552017  36.013623
  8242.837  8242.800  0.500  0.375532  132.086188  90.733129  36.203912
  8252.820  8252.800  0.500  0.371807  131.841342  90.902960  36.388573
  8262.825  8262.800  0.500  0.368095  131.559517  91.045951  36.554807
  8272.817  8272.800  0.500  0.364471  131.362154  91.239430  36.743732
  8282.822  8282.800  0.500  0.360743  131.090580  91.390909  36.911305
  8292.808  8292.800  0.500  0.357216  130.871867  91.560780  37.077137
  8302.813  8302.800  0.500  0.353652  130.665675  91.742892  37.230681
  8304.796  8304.800  0.500  0.352976  130.600993  91.759486  37.248513
  8306.792  8306.800  0.500  0.352355  130.502847  91.747469  37.255399
  8308.795  8308.800  0.500  0.351696  130.500167  91.806058  37.286025
  8310.784  8310.800  0.500  0.351002  130.439273  91.826933  37.300155
  8312.792  8312.800  0.500  0.350325  130.395002  91.857951  37.314041
  8314.789  8314.800  0.500  0.349728  130.368383  91.894040  37.325806
  8316.790  8316.800  0.500  0.349215  130.312812  91.901992  37.325262
  8318.798  8318.800  0.500  0.348616  130.194358  91.873457  37.289047
  8320.798  8320.800  0.500  0.348100  130.167030  91.901634  37.274347
  8322.793  8322.800  0.500  0.347593  130.143094  91.931301  37.237367
  8323.075  8323.100  0.500  0.347487  130.127740  91.930211  37.226381
  8323.375  8323.400  0.500  0.347350  130.118757  91.936429  37.221305
  8323.672  8323.700  0.500  0.347353  130.101358  91.923905  37.206792
  8323.975  8324.000  0.500  0.347295  130.096001  91.925428  37.192895
  8324.275  8324.300  0.500  0.347050  130.122256  91.966541  37.196158
  8324.572  8324.600  0.500  0.347073  130.086836  91.939339  37.172521
  8324.872  8324.900  0.500  0.346964  130.058065  91.929035  37.151750
  8325.175  8325.200  0.500  0.346972  130.053562  91.925082  37.132721
  8325.475  8325.500  0.500  0.346792  130.057395  91.944427  37.123157
  8325.778  8325.800  0.500  0.346694  130.033503  91.936488  37.100579
  8326.082  8326.100  0.500  0.346861  129.986999  91.888316  37.061080
  8326.379  8326.400  0.500  0.346772  129.995836  91.902734  37.042931
  8326.691  8326.700  0.500  0.346621  129.979354  91.904917  37.015241
  8326.988  8327.000  0.500  0.346571  129.964212  91.898845  36.983420
  8327.288  8327.300  0.500  0.346567  129.950982  91.889830  36.947534
  8327.589  8327.600  0.500  0.346528  129.917022  91.869415  36.899519
  8327.886  8327.900  0.500  0.346584  129.906626  91.856889  36.857534
  8328.195  8328.200  0.500  0.346623  129.948381  91.882856  36.820323
  8328.487  8328.500  0.500  0.346568  129.913513  91.863214  36.762848
  8328.793  8328.800  0.500  0.346598  129.952317  91.887930  36.711615
  8329.093  8329.100  0.500  0.346603  129.961653  91.894025  36.636465
  8329.379  8329.400  0.500  0.346595  129.925206  91.869064  36.546175
  8329.688  8329.700  0.500  0.346591  129.900832  91.852178  36.436679
  8329.986  8330.000  0.500  0.346657  129.880952  91.832058  36.295883
  8330.280  8330.300  0.500  0.346826  129.890897  91.823561  36.133854
  8330.590  8330.600  0.500  0.346886  129.896147  91.821713  35.910728
  8330.884  8330.900  0.500  0.346998  129.876159  91.797355  35.619660
  8331.185  8331.200  0.500  0.347257  129.884574  91.779548  35.217357
  8331.488  8331.500  0.500  0.347682  129.846483  91.713579  34.658778
  8331.801  8331.800  0.500  0.348309  129.827653  91.642794  33.927989
  8332.098  8332.100  0.500  0.349150  129.801098  91.547070  33.059733
  8332.396  8332.400  0.500  0.350009  129.806486  91.472219  32.112112
  8332.697  8332.700  0.500  0.350711  129.772013  91.383756  31.147112
  8332.997  8333.000  0.500  0.351036  129.759012  91.344937  30.214933
  8333.298  8333.300  0.500  0.350767  129.717179  91.340042  29.375539
  8333.587  8333.600  0.500  0.350124  129.698730  91.385775  28.642365
  8333.885  8333.900  0.500  0.349392  129.666517  91.430043  27.982594
  8334.188  8334.200  0.500  0.348834  129.629502  91.454928  27.399255
  8334.483  8334.500  0.500  0.348360  129.600612  91.477916  26.880196
  8334.793  8334.800  0.500  0.347921  129.584243  91.506492  26.429585
  8335.091  8335.100  0.500  0.347843  129.555148  91.493082  26.049026
  8335.401  8335.400  0.500  0.347987  129.511635  91.449226  25.719541
  8335.699  8335.700  0.500  0.348359  129.538055  91.433852  25.465031
  8335.999  8336.000  0.500  0.348664  129.522194  91.394792  25.244281
  8336.294  8336.300  0.500  0.349032  129.499874  91.345353  25.057951
  8336.598  8336.600  0.500  0.349369  129.478492  91.299543  24.889560
  8336.893  8336.900  0.500  0.349947  129.529407  91.282694  24.740942
  8337.188  8337.200  0.500  0.350498  129.512950  91.220797  24.568087
  8337.492  8337.500  0.500  0.351283  129.504858  91.143512  24.368635
  8337.790  8337.800  0.500  0.352206  129.508299  91.061814  24.131236
  8338.094  8338.100  0.500  0.353271  129.468815  90.937223  23.847875
  8338.398  8338.400  0.500  0.354749  129.436060  90.779892  23.519629
  8338.697  8338.700  0.500  0.356629  129.439972  90.612187  23.179801
  8339.004  8339.000  0.500  0.358943  129.416619  90.386355  22.827020
  8339.299  8339.300  0.500  0.361768  129.418223  90.132528  22.494329
  8339.603  8339.600  0.500  0.365351  129.413998  89.807206  22.165402
  8339.907  8339.900  0.500  0.369695  129.372240  89.389144  21.841342
  8340.199  8340.200  0.500  0.374740  129.367648  88.936160  21.529416
  8340.492  8340.500  0.500  0.380985  129.340045  88.363588  21.189672
  8340.787  8340.800  0.500  0.388270  129.354393  87.731938  20.833897
  8341.094  8341.100  0.500  0.396611  129.344222  86.996379  20.444510
  8341.399  8341.400  0.500  0.405778  129.345402  86.203278  20.025459
  8341.697  8341.700  0.500  0.415059  129.285484  85.367353  19.581989
  8341.998  8342.000  0.500  0.424813  129.255312  84.518986  19.112414
  8342.306  8342.300  0.500  0.434452  129.284765  83.727322  18.636607
  8342.601  8342.600  0.500  0.443424  129.220112  82.938022  18.160333
  8342.902  8342.900  0.500  0.452449  129.247853  82.210465  17.673558
  8343.204  8343.200  0.500  0.460638  129.218511  81.521472  17.185350
  8343.502  8343.500  0.500  0.468138  129.220531  80.913680  16.712069
  8343.801  8343.800  0.500  0.475287  129.198072  80.323308  16.228663
  8344.096  8344.100  0.500  0.482294  129.130074  79.720441  15.741587
  8344.398  8344.400  0.500  0.490053  129.194058  79.143481  15.254077
  8344.702  8344.700  0.500  0.498929  129.161947  78.424614  14.739476
  8345.004  8345.000  0.500  0.509036  129.157653  77.633440  14.227451
  8345.303  8345.300  0.500  0.519725  129.152059  76.804660  13.729164
  8345.601  8345.600  0.500  0.530763  129.142887  75.956164  13.247031
  8345.912  8345.900  0.500  0.542094  129.119104  75.086510  12.770534
  8346.201  8346.200  0.500  0.552428  129.128061  74.319711  12.347552
  8346.506  8346.500  0.500  0.562663  129.124071  73.560682  11.933472
  8346.796  8346.800  0.500  0.571705  129.109149  72.890151  11.564075
  8347.101  8347.100  0.500  0.580256  129.082257  72.254462  11.216373
  8347.393  8347.400  0.500  0.587207  129.049362  71.735685  10.922006
  8347.695  8347.700  0.500  0.592945  129.048819  71.324936  10.676346
  8347.997  8348.000  0.500  0.597287  129.035252  71.008453  10.480790
  8348.299  8348.300  0.500  0.600773  129.027398  70.757033  10.330552
  8348.598  8348.600  0.500  0.604217  129.003546  70.500733  10.206802
  8348.902  8348.900  0.500  0.608352  128.987302  70.200991  10.105407
  8349.201  8349.200  0.500  0.614036  128.968088  69.792670  10.010076
  8349.506  8349.500  0.500  0.621408  128.885669  69.235782  9.907757
  8349.796  8349.800  0.500  0.630673  128.911335  68.610959  9.814196
  8350.092  8350.100  0.500  0.641790  128.892193  67.842349  9.712899
  8350.400  8350.400  0.500  0.654299  128.827975  66.965626  9.605094
  8350.687  8350.700  0.500  0.666928  128.816384  66.119277  9.509718
  8350.992  8351.000  0.500  0.679680  128.789779  65.267961  9.422806
  8351.297  8351.300  0.500  0.690457  128.751064  64.548935  9.356303
  8351.602  8351.600  0.500  0.698078  128.913592  64.139727  9.338090
  8351.901  8351.900  0.500  0.701406  128.939618  63.939582  9.350737
  8352.206  8352.200  0.500  0.699853  128.911324  64.024849  9.402382
  8352.497  8352.500  0.500  0.693388  128.827497  64.398222  9.493149
  8352.799  8352.800  0.500  0.682111  128.805701  65.117545  9.631236
  8353.104  8353.100  0.500  0.667273  128.811932  66.094159  9.799344
  8353.391  8353.400  0.500  0.651191  128.798654  67.158767  9.969041
  8353.690  8353.700  0.500  0.635182  128.790682  68.238360  10.129699
  8353.999  8354.000  0.500  0.619613  128.770868  69.298373  10.270375
  8354.298  8354.300  0.500  0.606655  128.804003  70.220248  10.377064
  8354.597  8354.600  0.500  0.595767  128.769596  70.970014  10.439615
  8354.893  8354.900  0.500  0.586940  128.745987  71.586102  10.467267
  8355.199  8355.200  0.500  0.579802  128.761432  72.107597  10.465529
  8355.501  8355.500  0.500  0.574180  128.774047  72.521194  10.440952
  8355.807  8355.800  0.500  0.569865  128.763048  72.828643  10.389982
  8356.103  8356.100  0.500  0.566450  128.744814  73.067422  10.328998
  8356.399  8356.400  0.500  0.563753  128.722690  73.252118  10.265967
  8356.702  8356.700  0.500  0.561386  128.688791  73.406403  10.205505
  8357.001  8357.000  0.500  0.559131  128.744139  73.603749  10.163690
  8357.301  8357.300  0.500  0.556837  128.731641  73.765625  10.134734
  8357.597  8357.600  0.500  0.554168  128.715077  73.953273  10.126291
  8357.792  8357.800  0.500  0.552217  128.697942  74.087834  10.131216
  8358.778  8358.790  0.500  0.538060  128.666205  75.125591  10.303027
  8359.781  8359.790  0.500  0.520001  128.673194  76.498810  10.632461
  8360.806  8360.810  0.500  0.506368  128.648476  77.533904  10.934474
  8361.886  8361.860  0.500  0.499394  128.626983  78.063525  11.138658
  8362.941  8362.920  0.500  0.498850  128.593531  78.085650  11.273704
  8364.000  8364.000  0.500  0.503624  128.554256  77.690047  11.394171
  8365.170  8365.100  0.500  0.512187  128.570240  77.037209  11.518256
  8366.200  8366.220  0.500  0.517484  128.540032  76.612218  11.570023
  8367.458  8367.360  0.500  0.521739  128.458475  76.238508  11.592642
  8368.557  8368.510  0.500  0.520445  128.467856  76.342803  11.654002
  8369.701  8369.690  0.500  0.513858  128.401967  76.807954  11.752403
  8370.867  8370.880  0.500  0.504809  128.387222  77.497237  11.837515
  8372.084  8372.100  0.500  0.495999  128.374975  78.175509  11.849005
  8373.314  8373.330  0.500  0.489503  128.334189  78.659976  11.767995
  8374.568  8374.580  0.500  0.484867  128.264637  78.982669  11.603720
  8375.834  8375.850  0.500  0.481809  128.268761  79.227111  11.396811
  8377.137  8377.140  0.500  0.481020  128.253154  79.280032  11.144542
  8378.440  8378.450  0.500  0.483014  128.251797  79.121212  10.850725
  8379.771  8379.780  0.500  0.487384  128.187808  78.736939  10.553490
  8381.124  8381.130  0.500  0.493189  128.158461  78.263261  10.313891
  8382.501  8382.500  0.500  0.498858  128.122928  77.799314  10.195056
  8383.878  8383.880  0.500  0.504351  128.063673  77.337340  10.194961
  8385.286  8385.290  0.500  0.510058  128.027546  76.875531  10.296919
  8386.710  8386.710  0.500  0.515756  127.957151  76.396691  10.487803
  8388.149  8388.150  0.500  0.520916  127.920878  75.981942  10.724808
  8389.601  8389.610  0.500  0.526254  127.857075  75.539735  10.939322
  8391.087  8391.090  0.500  0.531892  127.841653  75.106022  11.118567
  8392.585  8392.590  0.500  0.536757  127.781481  74.706329  11.265323
  8394.114  8394.110  0.500  0.540298  127.725641  74.409746  11.369391
  8395.640  8395.650  0.500  0.542747  127.708360  74.217653  11.414482
  8397.204  8397.210  0.500  0.543740  127.660945  74.116510  11.406702
  8398.780  8398.780  0.500  0.541999  127.609709  74.215848  11.414964
  8400.384  8400.380  0.500  0.537440  127.531368  74.509147  11.481970
  8401.982  8401.990  0.500  0.531714  127.514962  74.927420  11.595093
  8403.627  8403.630  0.500  0.526790  127.460119  75.264874  11.683293
  8405.284  8405.280  0.500  0.524280  127.432333  75.437566  11.701090
  8406.951  8406.950  0.500  0.523722  127.394130  75.457085  11.640022
  8408.637  8408.640  0.500  0.523491  127.372664  75.461780  11.544954
  8410.354  8410.350  0.500  0.522534  127.333874  75.510985  11.477965
  8412.087  8412.080  0.500  0.521106  127.265184  75.578137  11.429210
  8413.836  8413.830  0.500  0.519273  127.220392  75.690111  11.366338
  8415.601  8415.590  0.500  0.516878  127.178864  75.846866  11.266964
  8417.385  8417.380  0.500  0.513777  127.146625  76.063176  11.154301
  8419.185  8419.180  0.500  0.510384  127.040882  76.258223  11.053952
  8421.009  8421.010  0.500  0.506833  127.067695  76.545618  10.967933
  8422.863  8422.850  0.500  0.503703  127.022699  76.758432  10.857796
  8424.707  8424.710  0.500  0.501314  126.959760  76.903895  10.713863
  8426.593  8426.590  0.500  0.499801  126.877905  76.970620  10.536534
  8428.494  8428.490  0.500  0.498856  126.833357  77.016384  10.377303
  8430.418  8430.410  0.500  0.498020  126.824000  77.075138  10.267024
  8432.360  8432.350  0.500  0.497115  126.793279  77.126214  10.245585
  8434.322  8434.310  0.500  0.496072  126.714191  77.158502  10.319525
  8436.279  8436.280  0.500  0.495003  126.679672  77.220014  10.488714
  8438.289  8438.280  0.500  0.494288  126.630287  77.245101  10.703145
  8440.300  8440.290  0.500  0.494237  126.597204  77.228848  10.929733
  8442.330  8442.320  0.500  0.495108  126.531986  77.121886  11.164391
  8444.385  8444.380  0.500  0.496416  126.486979  76.993702  11.380009
  8446.445  8446.450  0.500  0.497522  126.434370  76.876565  11.534476
  8448.558  8448.540  0.500  0.497606  126.360729  76.825376  11.672107
  8450.647  8450.650  0.500  0.496457  126.290447  76.870864  11.868741
  8452.793  8452.780  0.500  0.494638  126.224432  76.970628  12.139065
  8454.924  8454.920  0.500  0.492565  126.189050  77.108674  12.424880
  8457.093  8457.090  0.500  0.490364  126.048283  77.192409  12.648979
  8459.288  8459.280  0.500  0.488233  126.089448  77.382336  12.778246
  8461.494  8461.480  0.500  0.486603  125.988137  77.446273  12.774588
  8463.712  8463.700  0.500  0.485760  125.904548  77.460166  12.668398
  8465.966  8465.950  0.500  0.485565  125.887898  77.465064  12.495386
  8468.218  8468.210  0.500  0.485765  125.842801  77.421802  12.288505
  8470.515  8470.490  0.500  0.485981  125.753849  77.350367  12.076716
  8472.800  8472.790  0.500  0.486581  125.674387  77.255098  11.911420
  8475.130  8475.110  0.500  0.487546  125.636602  77.157395  11.832542
  8477.449  8477.450  0.500  0.488983  125.594013  77.020463  11.835589
  8479.818  8479.800  0.500  0.490954  125.535868  76.833259  11.878016
  8482.195  8482.180  0.500  0.493119  125.463894  76.623114  11.882684
  8484.586  8484.570  0.500  0.494669  125.396624  76.463410  11.766183
  8487.002  8486.990  0.500  0.495035  125.337012  76.399128  11.496405
  8489.436  8489.420  0.500  0.493910  125.279720  76.450135  11.142085
  8491.890  8491.870  0.500  0.491448  125.214744  76.598836  10.838085
  8494.367  8494.350  0.500  0.488198  125.152210  76.809816  10.661044
  8496.861  8496.840  0.500  0.484631  125.102948  77.053966  10.603364
  8499.371  8499.350  0.500  0.481305  125.002475  77.248611  10.603585
  8501.890  8501.870  0.500  0.478234  124.927573  77.439721  10.652841
  8504.429  8504.420  0.500  0.475595  124.850775  77.596616  10.780095
  8507.009  8506.990  0.500  0.473150  124.784854  77.745566  11.014463
  8509.582  8509.570  0.500  0.470940  124.690518  77.858653  11.344075
  8512.200  8512.180  0.500  0.468869  124.611235  77.970459  11.761072
  8514.820  8514.800  0.500  0.467126  124.526045  78.053053  12.254343
  8517.463  8517.450  0.500  0.465695  124.449027  78.116481  12.778981
  8520.130  8520.110  0.500  0.464722  124.314110  78.107755  13.247213
  8522.811  8522.790  0.500  0.464139  124.170440  78.063029  13.548999
  8525.509  8525.490  0.500  0.463704  123.857504  77.900100  13.606478
  8528.225  8528.210  0.500  0.463281  123.119898  77.468986  13.400288
  8530.964  8530.950  0.500  0.462576  108.824766  68.522542  11.620043
  8533.721  8533.700  0.500  0.461679  123.856866  78.057658  12.922683
  8536.492  8536.480  0.500  0.460677  124.259139  78.389638  12.704965
  8539.287  8539.270  0.500  0.459504  124.176978  78.429812  12.499241
  8542.105  8542.090  0.500  0.458498  124.049992  78.428458  12.375000
  8544.939  8544.920  0.500  0.457756  123.933585  78.413000  12.343356
  8547.783  8547.770  0.500  0.457182  123.870152  78.417857  12.379358
  8550.677  8550.650  0.500  0.456770  123.768065  78.385530  12.438348
  8553.559  8553.540  0.500  0.456242  123.708437  78.389161  12.508185
  8556.470  8556.450  0.500  0.455514  123.605491  78.380942  12.597228
  8559.385  8559.370  0.500  0.454507  123.534111  78.414596  12.724225
  8562.346  8562.320  0.500  0.453194  123.454270  78.466880  12.834464
  8565.313  8565.290  0.500  0.451880  123.368883  78.515745  12.840088
  8568.297  8568.270  0.500  0.450645  123.256416  78.541053  12.688377
  8571.297  8571.280  0.500  0.449718  123.186348  78.569239  12.450433
  8574.320  8574.300  0.500  0.448774  123.106749  78.592586  12.236678
  8577.359  8577.350  0.500  0.447497  123.030490  78.644268  12.098516
  8580.431  8580.410  0.500  0.445964  122.926957  78.698691  12.024518
  8583.505  8583.490  0.500  0.444220  122.824955  78.770668  12.017418
  8586.610  8586.590  0.500  0.442694  122.720509  78.823814  12.087347
  8589.724  8589.710  0.500  0.441400  122.505920  78.787908  12.241635
  8592.869  8592.850  0.500  0.440370  113.543785  73.099310  11.584669
  8596.019  8596.000  0.500  0.440118  120.726221  77.742892  12.623700
  8599.207  8599.180  0.500  0.439565  121.751097  78.446261  13.038935
  8602.384  8602.370  0.500  0.438402  121.771052  78.550454  13.312260
  8605.615  8605.590  0.500  0.436878  121.677148  78.609583  13.503828
  8608.832  8608.820  0.500  0.435084  121.382330  78.559912  13.586519
  8612.084  8612.070  0.500  0.433241  120.820765  78.340661  13.563501
  8615.366  8615.350  0.500  0.431506  119.026541  77.311325  13.382523
  8618.639  8618.640  0.500  0.429702  86.086312  56.016619  9.701383
  8621.959  8621.950  0.500  0.427906  122.991600  80.174894  13.895671
  8625.278  8625.270  0.500  0.426211  122.647428  80.086142  13.893463
  8628.629  8628.620  0.500  0.424666  122.380414  80.035367  13.896177
  8631.995  8631.990  0.500  0.423100  122.172730  80.024740  13.882590
  8635.380  8635.370  0.500  0.421744  121.959322  79.993384  13.831765
  8638.790  8638.780  0.500  0.420397  121.763592  79.972656  13.763584
  8642.199  8642.200  0.500  0.419189  120.149780  79.008085  13.534617
  8645.660  8645.650  0.500  0.418144  118.020179  77.688830  13.265294
  8649.127  8649.110  0.500  0.416933  121.000250  79.747033  13.588076
  8652.599  8652.590  0.500  0.415689  121.093329  79.907721  13.599842
  8656.104  8656.090  0.500  0.414648  121.035760  79.952965  13.587170
  8659.631  8659.610  0.500  0.413544  120.934274  79.974157  13.559360
  8663.163  8663.150  0.500  0.412414  120.821536  79.989919  13.519059
  8666.716  8666.700  0.500  0.411023  120.970635  80.200086  13.503273
  8670.290  8670.280  0.500  0.409574  121.176147  80.452860  13.526327
  8673.890  8673.880  0.500  0.408175  121.071937  80.496176  13.573304
  8677.503  8677.490  0.500  0.406864  120.973173  80.536022  13.674591
  8681.142  8681.120  0.500  0.405580  120.871173  80.571552  13.815624
  8684.796  8684.780  0.500  0.404250  120.746991  80.595901  13.975278
  8688.467  8688.450  0.500  0.402940  120.641520  80.631030  14.132832
  8692.167  8692.140  0.500  0.401593  120.466067  80.622306  14.246248
  8695.864  8695.850  0.500  0.400277  120.308166  80.622663  14.298731
  8699.593  8699.580  0.500  0.399066  120.051555  80.548131  14.292417
  8703.342  8703.320  0.500  0.397713  119.674899  80.404119  14.276005
  8707.101  8707.090  0.500  0.396207  114.236010  76.865685  13.701710
  8710.905  8710.880  0.500  0.394598  120.004945  80.877414  14.538928
  8714.700  8714.680  0.500  0.393172  120.220741  81.138493  14.737531
  8718.518  8718.510  0.500  0.391697  120.063286  81.151804  14.843118
  8722.369  8722.350  0.500  0.390465  119.949084  81.174573  14.878621
  8726.226  8726.210  0.500  0.388941  119.805809  81.201315  14.896178
  8730.107  8730.090  0.500  0.387692  119.614067  81.172681  14.911121
  8734.010  8733.990  0.500  0.386298  119.557333  81.247342  14.935581
  8737.921  8737.910  0.500  0.384821  119.433355  81.283091  14.939001
  8741.865  8741.850  0.500  0.383249  119.319909  81.333639  14.940381
  8745.839  8745.810  0.500  0.381582  119.209533  81.393938  14.938177
  8749.800  8749.780  0.500  0.380094  119.111063  81.447766  14.936120
  8753.801  8753.780  0.500  0.378706  119.000284  81.485035  14.928356
  8757.806  8757.790  0.500  0.377381  118.897454  81.522621  14.922236
  8761.860  8761.830  0.500  0.376072  118.749333  81.527700  14.916140
  8765.896  8765.880  0.500  0.374433  118.622438  81.574192  14.919547
  8769.975  8769.950  0.500  0.372723  118.522217  81.644737  14.930336
  8774.061  8774.040  0.500  0.370980  118.373212  81.684356  14.943943
  8778.171  8778.150  0.500  0.369341  118.280296  81.754139  14.982449
  8782.301  8782.280  0.500  0.367789  118.120374  81.770414  15.037252
  8786.452  8786.430  0.500  0.366338  117.993531  81.801220  15.123154
  8790.618  8790.590  0.500  0.364829  117.895001  81.856283  15.241788
  8794.807  8794.780  0.500  0.363476  117.708635  81.837605  15.348506
  8799.000  8798.980  0.500  0.362097  117.652622  81.911485  15.452366
  8803.237  8803.210  0.500  0.360666  117.557046  81.962194  15.521295
  8807.475  8807.450  0.500  0.359275  117.394572  81.962819  15.553995
  8811.731  8811.710  0.500  0.357727  117.252182  81.990221  15.580331
  8816.008  8815.990  0.500  0.356291  117.135366  82.026219  15.609768
  8820.315  8820.290  0.500  0.355002  117.022118  82.052612  15.649776
  8824.627  8824.610  0.500  0.353706  116.889960  82.066250  15.705767
  8828.971  8828.950  0.500  0.352456  116.702692  82.037254  15.777366
  8833.332  8833.310  0.500  0.351034  116.614996  82.092287  15.872366
  8837.710  8837.690  0.500  0.349660  116.508404  82.130008  15.944634
  8842.107  8842.080  0.500  0.348081  116.394353  82.179273  16.004272
  8846.522  8846.500  0.500  0.346379  116.270983  82.231993  16.064156
  8850.951  8850.930  0.500  0.344811  116.155054  82.278931  16.126634
  8855.405  8855.380  0.500  0.343357  115.960256  82.260464  16.172982
  8859.894  8859.850  0.500  0.341905  115.865148  82.312416  16.218217
  8864.368  8864.340  0.500  0.340459  115.723626  82.330807  16.245663
  8868.873  8868.850  0.500  0.338803  115.617455  82.391633  16.265414
  8873.410  8873.380  0.500  0.337066  115.495815  82.448055  16.276342
  8877.979  8877.930  0.500  0.335366  115.301837  82.449630  16.273925
  8882.526  8882.500  0.500  0.333720  115.203737  82.515169  16.275673
  8887.104  8887.080  0.500  0.332144  115.097282  82.568913  16.271455
  8891.708  8891.690  0.500  0.330584  114.935931  82.581938  16.269780
  8896.331  8896.310  0.500  0.329023  114.790758  82.606471  16.286851
  8900.995  8900.960  0.500  0.327449  114.625833  82.617739  16.334414
  8905.641  8905.620  0.500  0.325987  114.446700  82.609336  16.410282
  8910.316  8910.300  0.500  0.324439  113.730866  82.219744  16.428672
  8915.023  8915.000  0.500  0.322917  114.292226  82.751466  16.624714
  8919.739  8919.720  0.500  0.321350  114.161733  82.786599  16.707182
  8924.484  8924.460  0.500  0.319775  112.128295  81.440209  16.494049
  8929.237  8929.210  0.500  0.318212  113.708667  82.717207  16.804603
  8934.013  8933.990  0.500  0.316706  113.848657  82.943829  16.898264
  8938.812  8938.790  0.500  0.315094  113.627124  82.916011  16.935193
  8943.619  8943.600  0.500  0.313566  113.463190  82.923015  16.978906
  8948.452  8948.430  0.500  0.312008  113.268979  82.910097  17.019929
  8953.318  8953.290  0.500  0.310395  112.895720  82.770320  17.039176
  8958.189  8958.160  0.500  0.308835  112.972147  82.955661  17.125273
  8963.097  8963.050  0.500  0.307257  112.836052  82.986546  17.181442
  8967.990  8967.960  0.500  0.305704  112.658538  82.984806  17.238578
  8972.912  8972.890  0.500  0.304116  112.491617  82.993550  17.300895
  8977.854  8977.830  0.500  0.302535  112.389209  83.049216  17.360884
  8982.808  8982.800  0.500  0.300911  111.899551  82.821761  17.359674
  8987.817  8987.790  0.500  0.299229  112.009486  83.042709  17.444911
  8992.821  8992.790  0.500  0.297725  111.618848  82.877629  17.443253
  8997.845  8997.820  0.500  0.296218  111.836140  83.164217  17.537547
  9002.892  9002.860  0.500  0.294638  111.337807  82.924501  17.522126
  9007.962  9007.920  0.500  0.293128  111.390283  83.088941  17.588047
  9013.027  9013.000  0.500  0.291583  111.166777  83.050486  17.604706
  9018.127  9018.100  0.500  0.289888  110.986969  83.056781  17.632918
  9023.260  9023.220  0.500  0.288191  111.087013  83.272854  17.708495
  9028.375  9028.360  0.500  0.286565  110.854488  83.233753  17.739658
  9033.552  9033.520  0.500  0.285103  110.702434  83.241231  17.785520
  9038.728  9038.700  0.500  0.283499  110.509878  83.229819  17.831107
  9043.938  9043.890  0.500  0.281964  110.249393  83.161170  17.864043
  9049.137  9049.110  0.500  0.280278  110.212766  83.273848  17.940278
  9054.370  9054.340  0.500  0.278678  110.034939  83.272673  17.998051
  9059.606  9059.590  0.500  0.276941  109.918262  83.328912  18.068032
  9064.879  9064.860  0.500  0.275395  108.953499  82.725377  17.991776
  9070.156  9070.150  0.500  0.273680  109.478272  83.266467  18.164181
  9075.485  9075.460  0.500  0.272119  109.416466  83.349483  18.230091
  9080.814  9080.790  0.500  0.270441  109.235558  83.351391  18.281164
  9086.170  9086.140  0.500  0.268867  109.003569  83.305421  18.327801
  9091.536  9091.510  0.500  0.267213  108.879099  83.348031  18.390982
  9096.912  9096.890  0.500  0.265521  108.692315  83.345931  18.441125
  9102.323  9102.300  0.500  0.263856  108.494616  83.332967  18.489694
  9107.748  9107.720  0.500  0.262222  108.396819  83.394028  18.556824
  9113.202  9113.170  0.500  0.260533  108.228786  83.405542  18.613260
  9118.676  9118.630  0.500  0.259051  108.093685  83.424960  18.671771
  9124.142  9124.110  0.500  0.257312  107.892765  83.414786  18.722895
  9129.652  9129.610  0.500  0.255713  107.682856  83.385780  18.766104
  9135.160  9135.130  0.500  0.254063  107.490890  83.374555  18.808211
  9140.727  9140.670  0.500  0.252546  107.250371  83.314296  18.837301
  9146.278  9146.220  0.500  0.250890  106.764120  83.074048  18.819250
  9151.840  9151.800  0.500  0.249233  107.135243  83.501024  18.954251
  9157.459  9157.400  0.500  0.247556  105.892695  82.671108  18.804466
  9163.024  9163.010  0.500  0.245851  106.783943  83.509195  19.037562
  9168.712  9168.650  0.500  0.244184  104.526317  81.879984  18.710192
  9174.367  9174.300  0.500  0.242616  106.387726  83.468875  19.124207
  9179.979  9179.970  0.500  0.241125  106.029861  83.312300  19.145159
  9185.630  9185.660  0.500  0.239467  106.314433  83.674446  19.278058
