# XDI/1.0 BlueSky/1.10.0 BMM/2023-1.0-py310-tiled
# Beamline.name: BMM (06BM) -- Beamline for Materials Measurement (NIST)
# Beamline.xray_source: NSLS-II three-pole wiggler
# Beamline.collimation: paraboloid mirror, 5 nm Rh on 30 nm Pt
# Beamline.focusing: not in use
# Beamline.harmonic_rejection: flat mirror, Pt stripe, pitch = 7.0 mrad relative to beam
# Beamline.software: Bluesky 1.10.0, Ophyd 1.7.0, DataBroker 2.0.0b13, Python 3.10.8, 2023-1.0-py310-tiled
# Detector.I0: 10 cm N2
# Detector.I1: 25 cm N2
# Detector.I2: 25 cm N2
# Element.symbol: Ho
# Element.edge: L3
# Element.reference: Ho
# Element.reference_material: Ho2O3
# Facility.name: NSLS-II
# Facility.energy: 3.0
# Facility.current: 399.1
# Facility.mode: top-off
# Facility.GUP: 123456
# Facility.SAF: 301027
# Facility.cycle: 2023-2
# Mono.name: Si(111)
# Mono.d_spacing: 3.1351860
# Mono.encoder_resolution: 0.0000050 deg/ct
# Mono.angle_offset: 16.0754326 deg
# Mono.scan_mode: pseudo channel cut
# Mono.scan_type: step
# Mono.direction: forward in energy
# Sample.name: Ho2TiO5
# Sample.prep: Powder in PEG pellet
# Sample.x: 149.848 mm
# Sample.y: 114.690 mm
# Sample.SDD_position: 205.000 mm
# Scan.experimenters: Bruce Ravel
# Scan.edge_energy: 8071.1
# Scan.start_time: 2023-05-08T18:57:50
# Scan.end_time: 2023-05-08T19:03:39
# Scan.transient_id: 75514
# Scan.uid: ce17edd1-b616-4636-ba21-0e7eea7ad56e
# Scan.plot_hint: ln(I0/It)  --  ln($5/$6)
# Column.1: energy eV
# Column.2: requested_energy eV
# Column.3: measurement_time seconds
# Column.4: xmu 
# Column.5: I0 nA
# Column.6: It nA
# Column.7: Ir nA
# ///////////
# sample courtesy Martin Stennett, University of Sheffield
# -----------
# energy  requested_energy  measurement_time  xmu  I0  It  Ir
  7871.119  7871.100  0.500  0.759619  139.570394  65.297259  21.343686
  7881.169  7881.100  0.500  0.754670  139.416335  65.548815  21.515279
  7891.186  7891.100  0.500  0.749786  139.287728  65.808913  21.688939
  7901.155  7901.100  0.500  0.744933  139.051147  66.016788  21.845938
  7911.155  7911.100  0.500  0.740094  138.967045  66.296878  22.029028
  7921.139  7921.100  0.500  0.735321  138.820305  66.543699  22.201088
  7931.135  7931.100  0.500  0.730370  138.582848  66.759638  22.355848
  7941.114  7941.100  0.500  0.725389  138.666916  67.133703  22.569005
  7951.125  7951.100  0.500  0.720831  137.357498  66.803564  22.550946
  7961.121  7961.100  0.500  0.715933  138.196519  67.541569  22.892274
  7971.121  7971.100  0.500  0.711245  138.076736  67.800180  23.067042
  7981.082  7981.100  0.500  0.706592  136.940396  67.555767  23.071943
  7991.083  7991.100  0.500  0.701647  136.716825  67.779812  23.233577
  8001.090  8001.100  0.500  0.696884  136.483919  67.987456  23.393520
  8011.090  8011.100  0.500  0.692372  136.298386  68.202023  23.552485
  8021.083  8021.100  0.500  0.688065  136.079114  68.386211  23.698683
  8031.082  8031.100  0.500  0.684011  135.851853  68.549378  23.826365
  8041.088  8041.100  0.500  0.680473  135.638532  68.684320  23.925246
  8043.083  8043.100  0.500  0.679910  135.614449  68.710755  23.941103
  8045.078  8045.100  0.500  0.679297  135.544031  68.717196  23.948164
  8047.081  8047.100  0.500  0.678859  135.500909  68.725452  23.953857
  8049.076  8049.100  0.500  0.678612  135.440932  68.711987  23.945639
  8051.078  8051.100  0.500  0.678401  135.364821  68.687845  23.926718
  8053.080  8053.100  0.500  0.678569  135.302148  68.644506  23.896640
  8055.081  8055.100  0.500  0.678929  135.141345  68.538241  23.833024
  8057.075  8057.100  0.500  0.679561  134.524587  68.182337  23.669198
  8059.086  8059.100  0.500  0.680761  132.347281  66.998410  23.194187
  8061.077  8061.100  0.500  0.683390  135.318509  68.322620  23.553425
  8061.571  8061.600  0.500  0.684052  135.301176  68.268682  23.497876
  8062.075  8062.100  0.500  0.684904  135.264098  68.191836  23.433405
  8062.575  8062.600  0.500  0.686166  135.229677  68.088496  23.350148
  8063.082  8063.100  0.500  0.687403  135.218963  67.998943  23.266667
  8063.582  8063.600  0.500  0.688907  135.178974  67.876676  23.162272
  8064.083  8064.100  0.500  0.690825  135.173118  67.743698  23.046208
  8064.581  8064.600  0.500  0.692970  135.137267  67.580614  22.900583
  8065.079  8065.100  0.500  0.695477  135.087221  67.386420  22.732674
  8065.580  8065.600  0.500  0.698464  135.072587  67.178144  22.552760
  8066.076  8066.100  0.500  0.701227  135.047403  66.980325  22.373980
  8066.580  8066.600  0.500  0.703932  134.987341  66.769671  22.194094
  8067.078  8067.100  0.500  0.706654  134.936101  66.562929  22.015785
  8067.579  8067.600  0.500  0.709610  134.865924  66.331910  21.816366
  8068.092  8068.100  0.500  0.713076  134.774483  66.057562  21.583727
  8068.590  8068.600  0.500  0.717267  134.538408  65.666114  21.285734
  8069.092  8069.100  0.500  0.722186  133.850836  65.009942  20.874954
  8069.585  8069.600  0.500  0.728054  131.069665  63.286682  20.083950
  8070.089  8070.100  0.500  0.735839  129.147349  61.874948  19.329354
  8070.591  8070.600  0.500  0.745767  131.470501  62.365704  19.077148
  8071.087  8071.100  0.500  0.757181  134.301063  62.985390  18.781516
  8071.586  8071.600  0.500  0.770818  134.965700  62.439788  18.049341
  8072.088  8072.100  0.500  0.786518  135.011912  61.488163  17.110302
  8072.593  8072.600  0.500  0.804226  135.006009  60.406300  16.072585
  8073.097  8073.100  0.500  0.823247  134.983987  59.258487  15.010202
  8073.591  8073.600  0.500  0.841520  134.939004  58.166137  14.035625
  8074.096  8074.100  0.500  0.857925  134.919219  57.211260  13.218628
  8074.590  8074.600  0.500  0.871319  134.911840  56.447006  12.605891
  8075.089  8075.100  0.500  0.881472  134.874314  55.861285  12.160008
  8075.591  8075.600  0.500  0.888441  134.810602  55.447109  11.847225
  8076.088  8076.100  0.500  0.892898  134.790487  55.192329  11.637821
  8076.591  8076.600  0.500  0.894510  134.720194  55.074654  11.517833
  8077.099  8077.100  0.500  0.893578  134.625621  55.087325  11.498068
  8077.596  8077.600  0.500  0.890036  134.468620  55.218336  11.590700
  8078.101  8078.100  0.500  0.884097  134.039062  55.369808  11.788301
  8078.598  8078.600  0.500  0.876080  132.153525  55.030299  11.973277
  8079.092  8079.100  0.500  0.866047  129.181421  54.335112  12.167777
  8079.595  8079.600  0.500  0.854932  130.175544  55.365260  12.806891
  8080.092  8080.100  0.500  0.843932  133.203374  57.279604  13.672717
  8080.593  8080.600  0.500  0.833127  134.689737  58.548024  14.400299
  8081.101  8081.100  0.500  0.822549  134.814955  59.225644  14.986943
  8081.599  8081.600  0.500  0.813306  134.840198  59.786768  15.503830
  8082.102  8082.100  0.500  0.805234  134.800720  60.253679  15.955108
  8082.599  8082.600  0.500  0.798199  134.790295  60.674341  16.338070
  8083.105  8083.100  0.500  0.792857  134.786642  60.997683  16.648071
  8083.603  8083.600  0.500  0.788189  134.756631  61.269477  16.904877
  8084.092  8084.100  0.500  0.784190  134.745988  61.510087  17.123188
  8084.587  8084.600  0.500  0.780771  134.727797  61.712442  17.308286
  8085.097  8085.100  0.500  0.777860  134.702666  61.880822  17.471070
  8085.600  8085.600  0.500  0.775317  134.664901  62.020988  17.604976
  8086.104  8086.100  0.500  0.773082  134.631953  62.144557  17.718160
  8086.599  8086.600  0.500  0.771054  134.609215  62.260139  17.820127
  8087.103  8087.100  0.500  0.769464  134.570899  62.341460  17.905726
  8087.604  8087.600  0.500  0.768293  134.546012  62.402994  17.971769
  8088.102  8088.100  0.500  0.767342  134.487879  62.435367  18.021293
  8088.600  8088.600  0.500  0.766522  134.427246  62.458423  18.056002
  8089.090  8089.100  0.500  0.765716  134.352063  62.473857  18.079886
  8089.600  8089.600  0.500  0.765306  134.220824  62.438413  18.081111
  8090.096  8090.100  0.500  0.765078  133.885866  62.296751  18.040414
  8090.603  8090.600  0.500  0.765247  132.688552  61.729257  17.869741
  8091.104  8091.100  0.500  0.765274  129.276110  60.140073  17.397345
  8091.606  8091.600  0.500  0.765532  129.017858  60.004452  17.340461
  8092.102  8092.100  0.500  0.765732  131.632428  61.208203  17.666842
  8092.604  8092.600  0.500  0.766235  134.262628  62.399872  17.993717
  8093.100  8093.100  0.500  0.766564  134.692250  62.578920  18.035043
  8093.596  8093.600  0.500  0.766824  134.710276  62.571042  18.027326
  8094.098  8094.100  0.500  0.767150  134.682762  62.537848  18.017158
  8094.600  8094.600  0.500  0.767380  134.668198  62.516696  18.016035
  8095.107  8095.100  0.500  0.767654  134.601996  62.468880  18.014428
  8095.598  8095.600  0.500  0.767660  134.621623  62.477628  18.034894
  8096.103  8096.100  0.500  0.767591  134.600484  62.472122  18.055404
  8097.093  8097.090  0.500  0.767063  134.568485  62.490239  18.109719
  8098.095  8098.090  0.500  0.766430  134.516738  62.505776  18.163913
  8099.125  8099.110  0.500  0.765806  134.483859  62.529504  18.203906
  8100.175  8100.160  0.500  0.765509  134.452311  62.533371  18.206732
  8101.234  8101.220  0.500  0.765848  134.427547  62.500653  18.162730
  8102.305  8102.300  0.500  0.766705  134.381886  62.425927  18.078303
  8103.409  8103.400  0.500  0.767752  134.366936  62.353649  17.977465
  8104.536  8104.520  0.500  0.769214  134.351246  62.255315  17.856676
  8105.669  8105.660  0.500  0.770523  134.309349  62.154499  17.730841
  8106.814  8106.810  0.500  0.772551  134.287621  62.018527  17.587066
  8108.004  8107.990  0.500  0.774239  134.258717  61.900597  17.437601
  8109.194  8109.180  0.500  0.775916  134.244395  61.790265  17.287725
  8110.411  8110.400  0.500  0.777510  134.212854  61.677354  17.149683
  8111.635  8111.630  0.500  0.778787  134.178858  61.583027  17.045502
  8112.889  8112.880  0.500  0.779411  134.150169  61.531503  16.997359
  8114.160  8114.150  0.500  0.779039  134.130723  61.545435  17.017140
  8115.442  8115.440  0.500  0.777802  134.097206  61.606231  17.084683
  8116.765  8116.750  0.500  0.775904  134.035848  61.695040  17.189020
  8118.087  8118.080  0.500  0.773433  134.046411  61.852530  17.329082
  8119.436  8119.430  0.500  0.770454  133.986038  62.009102  17.466556
  8120.802  8120.800  0.500  0.767613  133.954214  62.170757  17.601182
  8122.194  8122.180  0.500  0.765033  133.911590  62.311554  17.720506
  8123.595  8123.590  0.500  0.762736  133.859110  62.430392  17.818015
  8125.022  8125.010  0.500  0.760988  133.857960  62.539067  17.904612
  8126.461  8126.450  0.500  0.759212  133.799657  62.622929  17.979441
  8127.922  8127.910  0.500  0.757777  133.750081  62.689603  18.048037
  8129.402  8129.390  0.500  0.756724  133.686774  62.725980  18.103560
  8130.907  8130.890  0.500  0.755746  133.669768  62.779344  18.156426
  8132.419  8132.410  0.500  0.755213  133.636226  62.797086  18.194925
  8133.959  8133.950  0.500  0.754609  133.604845  62.820274  18.228221
  8135.523  8135.510  0.500  0.754117  133.543972  62.822533  18.255253
  8137.085  8137.080  0.500  0.753671  133.508797  62.833990  18.283217
  8138.701  8138.680  0.500  0.753697  133.469084  62.813649  18.296003
  8140.297  8140.290  0.500  0.753428  133.418482  62.806753  18.306036
  8141.932  8141.930  0.500  0.752979  133.363530  62.809086  18.313392
  8143.587  8143.580  0.500  0.752594  133.307369  62.806786  18.311625
  8145.257  8145.250  0.500  0.752347  133.283337  62.811005  18.303717
  8146.950  8146.940  0.500  0.751879  133.233970  62.817153  18.288138
  8148.658  8148.650  0.500  0.751542  133.172826  62.809437  18.261924
  8150.387  8150.380  0.500  0.751169  133.104349  62.800555  18.229353
  8152.148  8152.130  0.500  0.750996  133.049660  62.785619  18.195461
  8153.901  8153.890  0.500  0.750429  133.032404  62.813118  18.176929
  8155.698  8155.680  0.500  0.749948  132.986276  62.821527  18.155219
  8157.487  8157.480  0.500  0.749492  132.914120  62.816112  18.143299
  8159.328  8159.310  0.500  0.749021  132.873989  62.826700  18.136409
  8161.156  8161.150  0.500  0.748536  132.841179  62.841655  18.142172
  8163.027  8163.010  0.500  0.748037  132.775321  62.841858  18.151748
  8164.905  8164.890  0.500  0.747427  132.733939  62.860636  18.169541
  8166.798  8166.790  0.500  0.746792  132.695735  62.882445  18.190084
  8168.721  8168.710  0.500  0.746249  132.636100  62.888325  18.207111
  8170.658  8170.650  0.500  0.745595  132.594668  62.909764  18.226073
  8172.634  8172.610  0.500  0.744998  132.568034  62.934738  18.247423
  8174.585  8174.580  0.500  0.744213  132.486428  62.945355  18.264684
  8176.598  8176.580  0.500  0.743497  132.427912  62.962643  18.289282
  8178.599  8178.590  0.500  0.742680  132.368022  62.985576  18.311461
  8180.640  8180.620  0.500  0.741711  132.317446  63.022596  18.340580
  8182.686  8182.680  0.500  0.740751  132.475126  63.158253  18.397347
  8184.774  8184.750  0.500  0.739749  132.800723  63.377007  18.475773
  8186.846  8186.840  0.500  0.738582  132.734364  63.419287  18.501140
  8188.963  8188.950  0.500  0.737411  132.698937  63.476663  18.532809
  8191.097  8191.080  0.500  0.736108  132.637505  63.529956  18.567924
  8193.238  8193.220  0.500  0.734940  132.573774  63.573666  18.611032
  8195.401  8195.390  0.500  0.733420  132.506641  63.638123  18.667926
  8197.597  8197.580  0.500  0.732008  132.456952  63.704167  18.735079
  8199.793  8199.780  0.500  0.730870  132.404140  63.751275  18.797074
  8202.020  8202.000  0.500  0.729647  132.295719  63.776974  18.852083
  8204.262  8204.250  0.500  0.728608  132.292589  63.841779  18.921834
  8206.535  8206.510  0.500  0.727683  132.227410  63.869377  18.967789
  8208.800  8208.790  0.500  0.726865  132.152647  63.885535  18.995673
  8211.107  8211.090  0.500  0.725997  132.093735  63.912482  19.009610
  8213.418  8213.410  0.500  0.725217  132.060321  63.946157  19.015736
  8215.768  8215.750  0.500  0.724593  131.968936  63.941821  19.006877
  8218.114  8218.100  0.500  0.723835  131.883525  63.948901  19.003622
  8220.501  8220.480  0.500  0.723227  131.870710  63.981545  19.013533
  8222.888  8222.870  0.500  0.722711  131.745951  63.954049  19.006344
  8225.313  8225.290  0.500  0.722079  131.745514  63.994226  19.016691
  8227.739  8227.720  0.500  0.721440  131.681534  64.004068  19.012469
  8230.176  8230.170  0.500  0.720694  131.627549  64.025536  19.004180
  8232.664  8232.650  0.500  0.719988  131.554827  64.035366  18.993835
  8235.150  8235.140  0.500  0.719049  131.506135  64.071841  18.995695
  8237.670  8237.650  0.500  0.717777  131.445065  64.123596  19.011596
  8240.183  8240.170  0.500  0.716763  131.369011  64.151502  19.035598
  8242.729  8242.720  0.500  0.715473  131.300702  64.200885  19.082019
  8245.303  8245.290  0.500  0.714197  131.236180  64.251246  19.139335
  8247.879  8247.870  0.500  0.713122  131.175597  64.290684  19.201762
  8250.501  8250.480  0.500  0.712046  131.093522  64.319607  19.255327
  8253.106  8253.100  0.500  0.710837  131.017392  64.360075  19.304323
  8255.760  8255.750  0.500  0.709644  130.967359  64.412238  19.348625
  8258.418  8258.410  0.500  0.708669  130.907921  64.445817  19.382773
  8261.093  8261.090  0.500  0.707613  130.827194  64.474155  19.409974
  8263.805  8263.790  0.500  0.706738  130.771916  64.503344  19.430357
  8266.516  8266.510  0.500  0.705633  130.692530  64.535452  19.449587
  8269.270  8269.250  0.500  0.704933  130.650521  64.559885  19.467538
  8272.002  8272.000  0.500  0.703881  130.560821  64.583457  19.482080
  8274.791  8274.780  0.500  0.702903  130.491135  64.612125  19.503698
  8277.577  8277.570  0.500  0.701738  130.130845  64.508829  19.482567
  8280.400  8280.390  0.500  0.700514  130.241849  64.642958  19.536479
  8283.239  8283.220  0.500  0.699320  130.238931  64.718713  19.576401
  8286.078  8286.070  0.500  0.697997  130.181048  64.775586  19.620250
  8288.957  8288.950  0.500  0.696775  130.113520  64.821147  19.669411
  8291.853  8291.840  0.500  0.695606  130.017268  64.848962  19.717069
  8294.760  8294.750  0.500  0.694356  129.958067  64.900518  19.767310
  8297.680  8297.670  0.500  0.693369  129.884285  64.927727  19.809998
  8300.626  8300.620  0.500  0.692175  129.833023  64.979662  19.856406
  8303.599  8303.590  0.500  0.691028  129.760815  65.018019  19.894324
  8306.588  8306.570  0.500  0.689745  129.695944  65.068989  19.927723
  8309.585  8309.580  0.500  0.688407  129.636115  65.126004  19.957970
  8312.614  8312.600  0.500  0.687110  129.558254  65.171425  19.984588
  8315.663  8315.650  0.500  0.685809  129.457006  65.205256  20.007496
  8318.721  8318.710  0.500  0.684721  129.405288  65.250115  20.031565
  8321.804  8321.790  0.500  0.683612  129.300203  65.269501  20.049141
  8324.896  8324.890  0.500  0.682718  129.241355  65.298172  20.070939
  8328.023  8328.010  0.500  0.681613  129.155082  65.326721  20.091603
  8331.170  8331.150  0.500  0.680474  129.049193  65.347514  20.113040
  8334.313  8334.300  0.500  0.679435  128.818749  65.298624  20.113733
  8337.492  8337.480  0.500  0.678155  128.723096  65.333718  20.144691
  8340.683  8340.670  0.500  0.676871  128.601922  65.356076  20.179368
  8343.896  8343.890  0.500  0.675542  128.468414  65.375051  20.208164
  8347.142  8347.120  0.500  0.674560  128.326682  65.367135  20.232271
  8350.388  8350.370  0.500  0.673097  128.112532  65.353569  20.259500
  8353.663  8353.650  0.500  0.671922  127.879840  65.311583  20.276748
  8356.959  8356.940  0.500  0.670860  127.818658  65.349706  20.318795
  8360.264  8360.250  0.500  0.669718  127.760727  65.394694  20.365648
  8363.595  8363.570  0.500  0.668245  127.722481  65.471497  20.424092
  8366.941  8366.920  0.500  0.666692  127.578276  65.499204  20.464397
  8370.308  8370.290  0.500  0.665449  127.581911  65.582547  20.518270
  8373.692  8373.670  0.500  0.664203  127.506194  65.625345  20.553179
  8377.098  8377.080  0.500  0.662612  127.465225  65.708707  20.598566
  8380.521  8380.500  0.500  0.661321  127.388630  65.754038  20.633990
  8383.969  8383.950  0.500  0.660044  127.263006  65.773138  20.658386
  8387.428  8387.410  0.500  0.658832  127.137647  65.788060  20.683302
  8390.915  8390.890  0.500  0.657480  127.030209  65.821369  20.715032
  8394.404  8394.390  0.500  0.656069  126.929154  65.861866  20.754570
  8397.933  8397.910  0.500  0.654839  126.826460  65.889609  20.794771
  8401.474  8401.450  0.500  0.653457  126.749602  65.940763  20.840606
  8405.024  8405.000  0.500  0.652018  126.662452  65.990288  20.887882
  8408.604  8408.580  0.500  0.650544  126.576288  66.042698  20.934627
  8412.203  8412.180  0.500  0.649167  126.478609  66.082617  20.977068
  8415.817  8415.790  0.500  0.648086  126.382785  66.104030  21.008732
  8419.434  8419.420  0.500  0.646715  126.297823  66.150175  21.045588
  8423.097  8423.080  0.500  0.645267  126.199498  66.194477  21.084187
  8426.778  8426.750  0.500  0.643932  126.111930  66.236887  21.123465
  8430.466  8430.440  0.500  0.642471  126.025421  66.288263  21.165924
  8434.173  8434.150  0.500  0.641005  125.935745  66.338256  21.213527
  8437.907  8437.880  0.500  0.639491  125.807737  66.371257  21.253648
  8441.645  8441.620  0.500  0.638152  125.713747  66.410545  21.292531
  8445.410  8445.390  0.500  0.636775  125.587730  66.435368  21.324560
  8449.204  8449.180  0.500  0.635452  125.477167  66.464755  21.358640
  8452.998  8452.980  0.500  0.633904  125.394288  66.523729  21.401349
  8456.835  8456.810  0.500  0.632464  125.281382  66.559652  21.435222
  8460.667  8460.650  0.500  0.631110  125.166362  66.588612  21.469094
  8464.533  8464.510  0.500  0.629640  125.059553  66.629651  21.509596
  8468.406  8468.390  0.500  0.628470  124.937060  66.642339  21.542939
  8472.329  8472.290  0.500  0.626821  124.829015  66.694612  21.591152
  8476.258  8476.210  0.500  0.625532  124.700476  66.711868  21.630177
  8480.164  8480.150  0.500  0.623981  124.617215  66.770779  21.680618
  8484.122  8484.110  0.500  0.622367  124.511898  66.822135  21.732046
  8488.103  8488.080  0.500  0.620882  124.372275  66.846389  21.773949
  8492.110  8492.080  0.500  0.619311  124.239719  66.880105  21.819864
  8496.098  8496.090  0.500  0.617877  124.118490  66.910760  21.858137
  8500.156  8500.130  0.500  0.616472  124.000222  66.940963  21.904363
  8504.202  8504.180  0.500  0.615047  123.883344  66.973223  21.952431
  8508.299  8508.250  0.500  0.613459  123.712911  66.987418  21.991435
  8512.359  8512.340  0.500  0.611855  123.582301  67.024115  22.038468
  8516.473  8516.450  0.500  0.610458  123.425840  67.032810  22.076370
  8520.601  8520.580  0.500  0.608886  123.215041  67.023598  22.101665
  8524.757  8524.730  0.500  0.607399  122.962652  66.985876  22.115701
  8528.918  8528.890  0.500  0.605907  120.767931  65.888522  21.778785
  8533.105  8533.080  0.500  0.604455  122.515013  66.938808  22.146593
  8537.321  8537.280  0.500  0.602825  123.082919  67.358799  22.311264
  8541.535  8541.510  0.500  0.601337  122.931800  67.376280  22.347207
  8545.773  8545.750  0.500  0.599849  122.769994  67.387779  22.381387
  8550.036  8550.010  0.500  0.598264  122.621379  67.412943  22.424981
  8554.313  8554.290  0.500  0.596688  122.511834  67.458957  22.475051
  8558.614  8558.590  0.500  0.595004  122.369337  67.494059  22.520901
  8562.944  8562.910  0.500  0.593497  122.252420  67.531268  22.570900
  8567.295  8567.250  0.500  0.591853  122.067117  67.539841  22.608395
  8571.637  8571.610  0.500  0.590504  121.942217  67.561853  22.654057
  8576.022  8575.990  0.500  0.588939  121.806134  67.592109  22.697972
  8580.405  8580.380  0.500  0.587382  121.645385  67.608145  22.739078
  8584.796  8584.800  0.500  0.585778  121.517794  67.645650  22.787753
  8589.252  8589.230  0.500  0.584220  121.186586  67.566437  22.797297
  8593.710  8593.680  0.500  0.582637  108.838624  60.778090  20.539498
  8598.168  8598.150  0.500  0.581164  120.498751  67.388597  22.813563
  8602.651  8602.640  0.500  0.579660  120.518728  67.501211  22.885192
  8607.167  8607.150  0.500  0.577928  120.191723  67.434727  22.892390
  8611.685  8611.680  0.500  0.576403  119.506587  67.152633  22.824926
  8616.240  8616.230  0.500  0.574880  113.592523  63.926755  21.756463
