# XDI/1.0 BlueSky/1.10.0 BMM/2023-1.0-py310-tiled
# Beamline.name: BMM (06BM) -- Beamline for Materials Measurement (NIST)
# Beamline.xray_source: NSLS-II three-pole wiggler
# Beamline.collimation: paraboloid mirror, 5 nm Rh on 30 nm Pt
# Beamline.focusing: not in use
# Beamline.harmonic_rejection: flat mirror, Pt stripe, pitch = 7.0 mrad relative to beam
# Beamline.software: Bluesky 1.10.0, Ophyd 1.7.0, DataBroker 2.0.0b13, Python 3.10.8, 2023-1.0-py310-tiled
# Detector.I0: 10 cm N2
# Detector.I1: 25 cm N2
# Detector.I2: 25 cm N2
# Element.symbol: As
# Element.edge: K
# Element.reference: As
# Element.reference_material: As2O3
# Facility.name: NSLS-II
# Facility.energy: 3.0
# Facility.current: 399.5
# Facility.mode: top-off
# Facility.GUP: 301027
# Facility.SAF: 310583
# Facility.cycle: 2023-2
# Mono.name: Si(111)
# Mono.d_spacing: 3.1351860
# Mono.encoder_resolution: 0.0000050 deg/ct
# Mono.angle_offset: 16.0754326 deg
# Mono.scan_mode: pseudo channel cut
# Mono.scan_type: step
# Mono.direction: forward in energy
# Sample.name: CH3AsNa2O3
# Sample.prep: powder in PEG pellet
# Sample.x: 115.008 mm
# Sample.y: 114.461 mm
# Sample.SDD_position: 170.000 mm
# Scan.experimenters: Bruce Ravel
# Scan.edge_energy: 11866.7
# Scan.start_time: 2023-07-10T16:36:55
# Scan.end_time: 2023-07-10T16:44:42
# Scan.transient_id: 90291
# Scan.uid: 3eb41b49-2685-4329-9fbe-431ac868b727
# Scan.plot_hint: ln(I0/It)  --  ln($5/$6)
# Column.1: energy eV
# Column.2: requested_energy eV
# Column.3: measurement_time seconds
# Column.4: xmu 
# Column.5: I0 nA
# Column.6: It nA
# Column.7: Ir nA
# ///////////
# sample courtesy Evan Jahrman, NIST
# -----------
# energy  requested_energy  measurement_time  xmu  I0  It  Ir
  11666.689  11666.700  0.500  0.147228  64.850205  55.972024  38.016905
  11676.727  11676.700  0.500  0.145188  64.754379  56.003450  38.071539
  11686.759  11686.700  0.500  0.143178  64.609276  55.990394  38.096129
  11696.724  11696.700  0.500  0.141184  64.494325  56.002346  38.138985
  11706.743  11706.700  0.500  0.139311  64.357691  55.988450  38.166790
  11716.737  11716.700  0.500  0.137345  64.234599  55.991347  38.201106
  11726.749  11726.700  0.500  0.135473  64.081942  55.962916  38.217450
  11736.784  11736.700  0.500  0.133454  63.804793  55.833488  38.160288
  11746.716  11746.700  0.500  0.131549  63.597514  55.758275  38.136404
  11756.720  11756.700  0.500  0.129719  63.576471  55.841893  38.225667
  11766.747  11766.700  0.500  0.127934  63.545696  55.914596  38.306130
  11776.737  11776.700  0.500  0.126079  63.223009  55.733942  38.206732
  11786.738  11786.700  0.500  0.124422  63.294345  55.889338  38.339687
  11796.738  11796.700  0.500  0.122816  63.153312  55.854433  38.336898
  11806.749  11806.700  0.500  0.121315  62.788884  55.615547  38.189174
  11816.754  11816.700  0.500  0.120204  62.860087  55.740523  38.278216
  11826.739  11826.700  0.500  0.119192  62.721994  55.674382  38.219232
  11836.747  11836.700  0.500  0.119079  62.611876  55.582923  38.108517
  11838.698  11838.700  0.500  0.119241  62.588499  55.553155  38.071495
  11840.681  11840.700  0.500  0.119371  62.571990  55.531272  38.035145
  11842.676  11842.700  0.500  0.119785  62.547368  55.486446  37.983258
  11844.678  11844.700  0.500  0.120150  62.504680  55.428356  37.908802
  11846.681  11846.700  0.500  0.120794  62.488265  55.378115  37.835491
  11848.684  11848.700  0.500  0.121464  62.276197  55.153251  37.628833
  11850.676  11850.700  0.500  0.122485  62.419881  55.224058  37.617625
  11852.687  11852.700  0.500  0.123838  62.400719  55.132480  37.475662
  11854.687  11854.700  0.500  0.125617  62.359656  54.998252  37.277924
  11856.668  11856.700  0.500  0.127887  62.180931  54.716275  36.946582
  11856.950  11857.000  0.500  0.128346  62.224062  54.729092  36.930125
  11857.243  11857.300  0.500  0.128663  62.253500  54.737637  36.909752
  11857.555  11857.600  0.500  0.129189  62.290164  54.741092  36.881882
  11857.837  11857.900  0.500  0.129621  62.316851  54.740862  36.851654
  11858.155  11858.200  0.500  0.130184  62.313592  54.707188  36.802323
  11858.455  11858.500  0.500  0.130754  62.282606  54.648877  36.728089
  11858.767  11858.800  0.500  0.131275  62.226939  54.571584  36.643795
  11859.073  11859.100  0.500  0.131842  62.159025  54.481094  36.542442
  11859.367  11859.400  0.500  0.132415  62.080876  54.381428  36.437152
  11859.679  11859.700  0.500  0.133216  62.009623  54.275551  36.327288
  11859.960  11860.000  0.500  0.133937  61.966958  54.199102  36.234308
  11860.279  11860.300  0.500  0.134654  61.943602  54.139855  36.145474
  11860.585  11860.600  0.500  0.135447  61.958938  54.110339  36.069088
  11860.885  11860.900  0.500  0.136296  62.215720  54.288464  36.135176
  11861.185  11861.200  0.500  0.137341  62.264676  54.274458  36.069923
  11861.479  11861.500  0.500  0.138262  62.336350  54.286893  36.024049
  11861.803  11861.800  0.500  0.139317  62.363086  54.252887  35.933440
  11862.097  11862.100  0.500  0.140296  62.348779  54.187386  35.825053
  11862.385  11862.400  0.500  0.141425  62.312623  54.094858  35.689381
  11862.685  11862.700  0.500  0.142560  62.280401  54.005540  35.548671
  11862.979  11863.000  0.500  0.143795  62.251274  53.913679  35.414894
  11863.297  11863.300  0.500  0.145200  62.242547  53.830431  35.265495
  11863.579  11863.600  0.500  0.146458  62.262334  53.779839  35.144827
  11863.879  11863.900  0.500  0.148127  62.300568  53.723100  34.999208
  11864.167  11864.200  0.500  0.149673  62.337696  53.672088  34.858717
  11864.492  11864.500  0.500  0.151623  62.384094  53.607393  34.682270
  11864.773  11864.800  0.500  0.153439  62.405272  53.528299  34.504140
  11865.086  11865.100  0.500  0.155645  62.419528  53.422582  34.285219
  11865.362  11865.400  0.500  0.157852  62.419356  53.304652  34.051803
  11865.686  11865.700  0.500  0.160566  62.424218  53.164330  33.768521
  11865.987  11866.000  0.500  0.163277  62.426406  53.022260  33.483067
  11866.293  11866.300  0.500  0.166427  62.408361  52.840185  33.146629
  11866.581  11866.600  0.500  0.169588  62.404345  52.670024  32.796197
  11866.906  11866.900  0.500  0.173577  62.399797  52.456564  32.368656
  11867.188  11867.200  0.500  0.177595  62.392175  52.239835  31.941787
  11867.494  11867.500  0.500  0.182150  62.383033  51.994760  31.438885
  11867.807  11867.800  0.500  0.187121  62.381117  51.735363  30.900321
  11868.101  11868.100  0.500  0.192663  62.380672  51.449098  30.310393
  11868.407  11868.400  0.500  0.198851  62.384269  51.134633  29.646993
  11868.695  11868.700  0.500  0.205576  62.374187  50.783722  28.924638
  11869.008  11869.000  0.500  0.213968  62.364861  50.351774  28.044933
  11869.296  11869.300  0.500  0.222448  62.361918  49.924230  27.175160
  11869.597  11869.600  0.500  0.232963  62.346970  49.390208  26.131875
  11869.903  11869.900  0.500  0.244886  62.332939  48.793850  25.002345
  11870.185  11870.200  0.500  0.258416  62.310970  48.121156  23.787527
  11870.486  11870.500  0.500  0.275720  62.263040  47.259223  22.376557
  11870.774  11870.800  0.500  0.295094  62.214511  46.316311  20.963991
  11871.093  11871.100  0.500  0.321284  62.165505  45.083516  19.319459
  11871.393  11871.400  0.500  0.351179  62.139903  43.737670  17.784384
  11871.688  11871.700  0.500  0.389059  62.151177  42.119484  16.224624
  11872.000  11872.000  0.500  0.438896  62.198505  40.102338  14.644561
  11872.289  11872.300  0.500  0.497413  62.228318  37.841160  13.222531
  11872.602  11872.600  0.500  0.572992  62.268139  35.109018  11.829178
  11872.902  11872.900  0.500  0.667959  62.279558  31.934106  10.487320
  11873.203  11873.200  0.500  0.778313  62.299660  28.606761  9.272175
  11873.516  11873.500  0.500  0.914079  62.303918  24.976759  8.074898
  11873.798  11873.800  0.500  1.061950  62.307445  21.544727  7.006637
  11874.111  11874.100  0.500  1.235161  62.310187  18.119058  5.970553
  11874.399  11874.400  0.500  1.410840  62.307083  15.199079  5.090205
  11874.700  11874.700  0.500  1.582781  62.303199  12.797273  4.357641
  11875.007  11875.000  0.500  1.749054  62.297620  10.835948  3.754680
  11875.295  11875.300  0.500  1.868483  62.293040  9.615404  3.374759
  11875.596  11875.600  0.500  1.941524  62.290077  8.937696  3.170340
  11875.884  11875.900  0.500  1.958353  62.288694  8.788345  3.143369
  11876.197  11876.200  0.500  1.920177  62.278658  9.128866  3.294099
  11876.486  11876.500  0.500  1.847277  62.276233  9.818840  3.574909
  11876.787  11876.800  0.500  1.750477  62.267445  10.815302  3.985895
  11877.081  11877.100  0.500  1.648239  62.263777  11.978835  4.475235
  11877.400  11877.400  0.500  1.544070  62.265897  13.294416  5.045724
  11877.701  11877.700  0.500  1.451276  62.239959  14.581031  5.625522
  11877.990  11878.000  0.500  1.373840  62.241549  15.755395  6.176275
  11878.315  11878.300  0.500  1.303561  62.234630  16.900630  6.739217
  11878.604  11878.600  0.500  1.254767  62.224936  17.742966  7.177569
  11878.911  11878.900  0.500  1.213841  62.214860  18.481178  7.585086
  11879.206  11879.200  0.500  1.185834  62.215363  19.006259  7.894987
  11879.507  11879.500  0.500  1.165797  62.208697  19.388843  8.137291
  11879.814  11879.800  0.500  1.151956  62.201921  19.656931  8.316791
  11880.102  11880.100  0.500  1.142950  62.197838  19.833462  8.441821
  11880.416  11880.400  0.500  1.135325  62.192648  19.983603  8.536385
  11880.704  11880.700  0.500  1.129075  62.192141  20.108730  8.598548
  11881.018  11881.000  0.500  1.122002  62.192742  20.251642  8.649711
  11881.288  11881.300  0.500  1.113844  62.176986  20.412368  8.685673
  11881.595  11881.600  0.500  1.104188  62.179078  20.611111  8.718088
  11881.896  11881.900  0.500  1.094048  62.161079  20.815157  8.736861
  11882.197  11882.200  0.500  1.083107  62.157344  21.042871  8.755364
  11882.492  11882.500  0.500  1.071939  62.152677  21.277604  8.770220
  11882.787  11882.800  0.500  1.060556  62.151317  21.520711  8.790039
  11883.094  11883.100  0.500  1.049015  62.128829  21.762655  8.819224
  11883.389  11883.400  0.500  1.037811  62.121021  22.005093  8.865431
  11883.697  11883.700  0.500  1.025516  62.088615  22.265675  8.931937
  11883.985  11884.000  0.500  1.013844  62.041941  22.510160  9.014513
  11884.311  11884.300  0.500  1.000939  61.938031  22.764336  9.116823
  11884.612  11884.600  0.500  0.989096  61.786954  22.979365  9.220807
  11884.920  11884.900  0.500  0.976595  61.620333  23.205672  9.341745
  11885.203  11885.200  0.500  0.965686  61.503475  23.415729  9.462120
  11885.504  11885.500  0.500  0.955257  61.418846  23.628644  9.592196
  11885.805  11885.800  0.500  0.946955  61.413949  23.823723  9.712859
  11886.112  11886.100  0.500  0.940217  61.455341  24.000969  9.826185
  11886.408  11886.400  0.500  0.935709  61.531467  24.139264  9.918023
  11886.709  11886.700  0.500  0.933326  61.646171  24.241965  9.986317
  11887.004  11887.000  0.500  0.933096  61.761828  24.293037  10.033472
  11887.311  11887.300  0.500  0.934696  61.865768  24.295018  10.055730
  11887.613  11887.600  0.500  0.937983  61.935650  24.242646  10.052047
  11887.890  11887.900  0.500  0.942778  61.975428  24.142174  10.026640
  11888.191  11888.200  0.500  0.949193  61.993674  23.994848  9.979154
  11888.498  11888.500  0.500  0.956649  62.005688  23.821239  9.918768
  11888.794  11888.800  0.500  0.964730  62.009437  23.630934  9.854187
  11889.089  11889.100  0.500  0.972995  62.013223  23.437855  9.789173
  11889.397  11889.400  0.500  0.981541  62.004647  23.235189  9.724527
  11889.698  11889.700  0.500  0.989423  62.001974  23.051778  9.671317
  11889.993  11890.000  0.500  0.996167  62.000469  22.896295  9.629881
  11890.289  11890.300  0.500  1.001491  61.995721  22.772968  9.608876
  11890.602  11890.600  0.500  1.005116  62.007407  22.694850  9.605843
  11890.904  11890.900  0.500  1.006380  61.993341  22.661027  9.622483
  11891.199  11891.200  0.500  1.005359  61.981997  22.680034  9.658830
  11891.507  11891.500  0.500  1.002151  61.975444  22.750510  9.715285
  11891.704  11891.700  0.500  0.998723  61.972798  22.827660  9.761083
  11892.713  11892.690  0.500  0.970523  61.960208  23.475776  10.099208
  11893.717  11893.690  0.500  0.936563  61.945293  24.280870  10.523149
  11894.720  11894.710  0.500  0.909593  61.935715  24.940767  10.942828
  11895.767  11895.760  0.500  0.891570  61.920279  25.388035  11.273425
  11896.839  11896.820  0.500  0.876173  61.902351  25.774497  11.513039
  11897.923  11897.900  0.500  0.856396  61.889611  26.283887  11.757165
  11899.020  11899.000  0.500  0.831469  61.874521  26.940732  12.052340
  11900.135  11900.120  0.500  0.805778  61.823660  27.619121  12.373517
  11901.263  11901.260  0.500  0.781693  61.584454  28.182919  12.653334
  11902.422  11902.410  0.500  0.760806  61.159010  28.578963  12.854998
  11903.606  11903.590  0.500  0.741822  61.443475  29.262165  13.198574
  11904.802  11904.780  0.500  0.725044  61.750970  29.906192  13.539035
  11906.030  11906.000  0.500  0.710166  61.784751  30.371067  13.802430
  11907.245  11907.230  0.500  0.697763  61.758309  30.736936  14.004547
  11908.480  11908.480  0.500  0.689209  61.752084  30.997876  14.155812
  11909.751  11909.750  0.500  0.683842  61.736149  31.156644  14.260402
  11911.054  11911.040  0.500  0.680466  61.722168  31.254937  14.305563
  11912.369  11912.350  0.500  0.678454  61.691305  31.302214  14.290711
  11913.691  11913.680  0.500  0.678182  61.677668  31.303816  14.224867
  11915.038  11915.030  0.500  0.680890  61.636976  31.198547  14.091749
  11916.422  11916.400  0.500  0.687646  61.404792  30.871768  13.865719
  11917.800  11917.780  0.500  0.697465  60.971559  30.354446  13.573631
  11919.216  11919.190  0.500  0.709212  61.387383  30.204547  13.463473
  11920.626  11920.610  0.500  0.721956  61.594435  29.922633  13.313506
  11922.049  11922.050  0.500  0.734092  61.570397  29.550167  13.125867
  11923.515  11923.510  0.500  0.743190  61.562612  29.278841  12.968906
  11925.019  11924.990  0.500  0.748667  61.547841  29.111908  12.845101
  11926.523  11926.490  0.500  0.751825  61.531732  29.012525  12.741587
  11928.015  11928.010  0.500  0.754795  61.520255  28.921096  12.642291
  11929.551  11929.550  0.500  0.758765  61.487627  28.791227  12.534628
  11931.112  11931.110  0.500  0.764047  61.470220  28.631446  12.429688
  11932.699  11932.680  0.500  0.771286  61.439628  28.410793  12.315172
  11934.292  11934.280  0.500  0.780206  61.177034  28.038139  12.132514
  11935.891  11935.890  0.500  0.789621  60.764516  27.588120  11.911633
  11937.528  11937.530  0.500  0.796732  61.261095  27.616476  11.912178
  11939.203  11939.180  0.500  0.801157  61.326100  27.523718  11.869501
  11940.866  11940.850  0.500  0.805730  61.318324  27.394669  11.812020
  11942.536  11942.540  0.500  0.811026  61.292658  27.238568  11.729860
  11944.268  11944.250  0.500  0.816858  61.274034  27.071956  11.643898
  11945.982  11945.980  0.500  0.821774  61.251702  26.929369  11.566391
  11947.746  11947.730  0.500  0.825751  61.227411  26.811845  11.509349
  11949.499  11949.490  0.500  0.828213  61.220338  26.742833  11.489307
  11951.277  11951.280  0.500  0.829190  61.176582  26.697614  11.492078
  11953.080  11953.080  0.500  0.828817  61.157396  26.699203  11.526543
  11954.908  11954.910  0.500  0.827381  61.137538  26.728896  11.574489
  11956.738  11956.750  0.500  0.825496  61.128448  26.775348  11.616129
  11958.611  11958.610  0.500  0.823782  61.086895  26.803053  11.646273
  11960.503  11960.490  0.500  0.822408  61.065336  26.830430  11.674897
  11962.409  11962.390  0.500  0.820856  61.041217  26.861480  11.709653
  11964.309  11964.310  0.500  0.818928  61.008331  26.898815  11.750340
  11966.216  11966.250  0.500  0.815996  60.972022  26.961737  11.797223
  11968.186  11968.210  0.500  0.812218  60.946812  27.052615  11.852702
  11970.156  11970.180  0.500  0.807803  60.916332  27.158719  11.913521
  11972.146  11972.180  0.500  0.803413  60.885887  27.264568  11.978843
  11974.255  11974.190  0.500  0.798979  60.848891  27.369087  12.043181
  11976.197  11976.220  0.500  0.794925  60.825425  27.469680  12.101297
  11978.257  11978.280  0.500  0.790614  60.798031  27.575930  12.163624
  11980.550  11980.350  0.500  0.785920  60.750890  27.684187  12.228811
  11982.525  11982.440  0.500  0.781390  60.725724  27.798383  12.299968
  11984.575  11984.550  0.500  0.776388  60.687588  27.920218  12.381577
  11986.682  11986.680  0.500  0.771508  60.654725  28.041612  12.459899
  11988.809  11988.820  0.500  0.766834  60.630665  28.161823  12.533465
  11990.993  11990.990  0.500  0.762346  60.588730  28.268910  12.594364
  11993.159  11993.180  0.500  0.758454  60.560385  28.365873  12.644942
  11995.363  11995.380  0.500  0.755264  60.533671  28.443952  12.688646
  11997.594  11997.600  0.500  0.752518  60.519791  28.515636  12.722782
  11999.862  11999.850  0.500  0.750319  60.501894  28.569963  12.743348
  12002.113  12002.110  0.500  0.748519  60.467978  28.605384  12.752984
  12004.396  12004.390  0.500  0.747391  60.448888  28.628637  12.750377
  12006.667  12006.690  0.500  0.746527  60.416833  28.638170  12.736049
  12009.009  12009.010  0.500  0.746346  60.396566  28.633745  12.713298
  12011.357  12011.350  0.500  0.746582  60.365277  28.612173  12.684592
  12013.719  12013.700  0.500  0.747076  60.330026  28.581347  12.652065
  12016.094  12016.080  0.500  0.747639  60.336995  28.568536  12.628992
  12018.465  12018.470  0.500  0.748538  60.464484  28.603194  12.633235
  12020.892  12020.890  0.500  0.749430  60.429373  28.561088  12.604551
  12023.321  12023.320  0.500  0.750468  60.388234  28.512039  12.572866
  12025.776  12025.770  0.500  0.751625  60.362124  28.466742  12.545023
  12028.263  12028.250  0.500  0.752764  60.325226  28.416965  12.514924
  12030.733  12030.740  0.500  0.753885  60.296377  28.371541  12.490273
  12033.241  12033.250  0.500  0.754619  60.251215  28.329492  12.467012
  12035.782  12035.770  0.500  0.755560  60.221201  28.288751  12.444321
  12038.336  12038.320  0.500  0.756481  60.179866  28.243323  12.424738
  12040.898  12040.890  0.500  0.757964  60.138023  28.181844  12.407018
  12043.462  12043.470  0.500  0.759064  60.090018  28.128388  12.388319
  12046.083  12046.080  0.500  0.759780  59.921258  28.029333  12.362545
  12048.705  12048.700  0.500  0.760716  58.307601  27.248983  12.028217
  12051.360  12051.350  0.500  0.760700  59.860163  27.974987  12.366110
  12054.016  12054.010  0.500  0.760630  59.907960  27.999296  12.390051
  12056.686  12056.690  0.500  0.760633  59.883435  27.987743  12.400180
  12059.402  12059.390  0.500  0.760323  59.854953  27.983111  12.411062
  12062.119  12062.110  0.500  0.759991  59.821729  27.976874  12.419023
  12064.869  12064.850  0.500  0.759433  59.794051  27.979533  12.428876
  12067.588  12067.600  0.500  0.758323  59.750671  27.990294  12.436543
  12070.385  12070.380  0.500  0.757328  59.714043  28.000963  12.447275
  12073.176  12073.170  0.500  0.755988  59.677538  28.021387  12.457369
  12076.014  12075.990  0.500  0.754674  59.630128  28.035931  12.467769
  12078.814  12078.820  0.500  0.753254  59.591296  28.057487  12.487197
  12081.674  12081.670  0.500  0.751865  59.553008  28.078445  12.504326
  12084.547  12084.550  0.500  0.750191  59.514565  28.107321  12.529385
  12087.434  12087.440  0.500  0.748640  59.472889  28.131225  12.549033
  12090.342  12090.350  0.500  0.746764  59.418401  28.158227  12.570612
  12093.283  12093.270  0.500  0.744809  59.260847  28.138526  12.568835
  12096.245  12096.220  0.500  0.742920  59.364668  28.241128  12.623352
  12099.176  12099.190  0.500  0.741162  59.327656  28.273168  12.643174
  12102.173  12102.170  0.500  0.739539  59.284307  28.298414  12.656729
  12105.196  12105.180  0.500  0.737792  59.245652  28.329400  12.680177
  12108.209  12108.200  0.500  0.736038  59.210036  28.362080  12.704902
  12111.248  12111.250  0.500  0.734003  59.165004  28.398248  12.731616
  12114.321  12114.310  0.500  0.732291  59.122128  28.426292  12.756830
  12117.408  12117.390  0.500  0.730505  59.081398  28.457484  12.780187
  12120.510  12120.490  0.500  0.728880  59.039234  28.483409  12.799982
  12123.613  12123.610  0.500  0.727301  58.992765  28.505978  12.818046
  12126.782  12126.750  0.500  0.725727  58.944284  28.527430  12.830565
  12129.901  12129.900  0.500  0.724218  58.689921  28.447215  12.799321
  12133.086  12133.080  0.500  0.722767  58.880466  28.581007  12.861142
  12136.279  12136.270  0.500  0.721517  58.835434  28.594870  12.867713
  12139.506  12139.490  0.500  0.720317  58.792358  28.608254  12.870580
  12142.728  12142.720  0.500  0.719112  58.744926  28.619640  12.870921
  12145.997  12145.970  0.500  0.718000  58.702443  28.630744  12.867098
  12149.262  12149.250  0.500  0.717015  58.661245  28.638858  12.862594
  12152.547  12152.540  0.500  0.716029  58.610671  28.642388  12.857512
  12155.886  12155.850  0.500  0.715082  58.566044  28.647706  12.853285
  12159.168  12159.170  0.500  0.714081  58.507753  28.647854  12.853051
  12162.530  12162.520  0.500  0.713351  58.286134  28.560164  12.816659
  12165.919  12165.890  0.500  0.712444  58.434707  28.658945  12.866145
  12169.278  12169.270  0.500  0.711620  58.390839  28.661052  12.877679
  12172.704  12172.680  0.500  0.710876  58.347412  28.661056  12.887964
  12176.124  12176.100  0.500  0.709949  58.296183  28.662456  12.904478
  12179.567  12179.550  0.500  0.709183  58.251223  28.662291  12.919611
  12183.030  12183.010  0.500  0.708384  58.201718  28.660810  12.934955
  12186.528  12186.490  0.500  0.707745  58.155435  28.656341  12.949389
  12190.009  12189.990  0.500  0.706935  58.108770  28.656538  12.963742
  12193.524  12193.510  0.500  0.706143  58.053947  28.652173  12.973877
  12197.073  12197.050  0.500  0.705476  58.006608  28.647919  12.984368
  12200.605  12200.600  0.500  0.704636  57.833802  28.586583  12.965369
  12204.204  12204.180  0.500  0.703729  57.915648  28.653020  13.001224
  12207.812  12207.780  0.500  0.702854  57.872533  28.656757  13.008470
  12211.402  12211.390  0.500  0.701993  57.830922  28.660804  13.013236
  12215.047  12215.020  0.500  0.700894  57.784714  28.669404  13.018611
  12218.706  12218.680  0.500  0.699633  57.738387  28.682562  13.025760
  12222.362  12222.350  0.500  0.698490  57.697942  28.695250  13.032495
  12226.078  12226.040  0.500  0.697240  57.649058  28.706783  13.040043
  12229.764  12229.750  0.500  0.696253  57.610488  28.715929  13.049253
  12233.510  12233.480  0.500  0.694867  57.469443  28.685350  13.039048
  12237.246  12237.220  0.500  0.693347  56.702416  28.345544  12.887432
  12241.011  12240.990  0.500  0.691868  57.399793  28.736637  13.079036
  12244.804  12244.780  0.500  0.690527  57.379502  28.765015  13.104118
  12248.599  12248.580  0.500  0.689101  57.334740  28.783595  13.126905
  12252.410  12252.410  0.500  0.687317  57.282731  28.808834  13.151324
  12256.263  12256.250  0.500  0.685885  57.102426  28.759307  13.144043
  12260.104  12260.110  0.500  0.684110  57.176720  28.847885  13.197761
  12263.995  12263.990  0.500  0.682738  56.230644  28.409514  13.014302
  12267.907  12267.890  0.500  0.680762  56.986430  28.848306  13.222291
  12271.815  12271.810  0.500  0.679136  56.890875  28.846808  13.230872
  12275.765  12275.750  0.500  0.677552  56.980219  28.937895  13.281286
  12279.712  12279.710  0.500  0.675841  56.922019  28.957853  13.295797
  12283.687  12283.680  0.500  0.674207  56.760728  28.923009  13.285039
  12287.704  12287.680  0.500  0.672657  56.784326  28.979920  13.314246
  12291.697  12291.690  0.500  0.670880  55.411843  28.329770  13.014694
  12295.766  12295.730  0.500  0.669197  56.659252  29.016311  13.329067
  12299.778  12299.780  0.500  0.667520  56.468462  28.967140  13.304357
  12303.878  12303.850  0.500  0.665957  56.590773  29.075288  13.356518
  12307.968  12307.940  0.500  0.664429  56.533892  29.090500  13.366407
  12312.054  12312.050  0.500  0.663074  56.482730  29.103565  13.373214
  12316.202  12316.180  0.500  0.661540  56.424901  29.118413  13.381870
  12320.340  12320.330  0.500  0.660355  55.610977  28.732400  13.217565
  12324.514  12324.490  0.500  0.658993  56.197260  29.074902  13.378208
  12328.697  12328.680  0.500  0.657642  56.232240  29.132315  13.413003
  12332.897  12332.880  0.500  0.656349  56.191861  29.149061  13.431927
  12337.132  12337.110  0.500  0.655018  56.149210  29.165722  13.451934
  12341.364  12341.350  0.500  0.653681  56.100968  29.179653  13.470179
  12345.625  12345.610  0.500  0.652531  56.046059  29.184648  13.486928
  12349.910  12349.890  0.500  0.651404  55.855460  29.118209  13.469368
  12354.223  12354.190  0.500  0.650121  55.938696  29.199037  13.517779
  12358.527  12358.510  0.500  0.648970  55.800602  29.160491  13.511594
  12362.860  12362.850  0.500  0.647862  55.819070  29.202491  13.541338
  12367.250  12367.210  0.500  0.646713  55.770509  29.210630  13.555062
  12371.596  12371.590  0.500  0.645606  55.706250  29.209276  13.561920
  12376.012  12375.980  0.500  0.644445  55.663764  29.220917  13.575855
  12380.431  12380.400  0.500  0.643136  55.600359  29.225863  13.582159
  12384.853  12384.830  0.500  0.641865  55.147794  29.024835  13.494990
  12389.312  12389.280  0.500  0.640654  55.515836  29.253939  13.607389
  12393.768  12393.750  0.500  0.639309  55.454568  29.260988  13.616747
  12398.273  12398.240  0.500  0.638076  55.392910  29.264503  13.621997
  12402.762  12402.750  0.500  0.636785  55.333406  29.270831  13.631639
  12407.301  12407.280  0.500  0.635493  55.269205  29.274678  13.639561
  12411.844  12411.830  0.500  0.634043  55.202524  29.281782  13.650465
  12416.410  12416.400  0.500  0.632773  55.131536  29.281299  13.661155
  12421.019  12420.980  0.500  0.631119  55.089231  29.307266  13.683415
  12425.613  12425.590  0.500  0.629725  55.037824  29.320752  13.703218
  12430.229  12430.210  0.500  0.628073  54.946093  29.320278  13.712018
  12434.903  12434.860  0.500  0.626608  54.848308  29.311008  13.720147
  12439.540  12439.520  0.500  0.624936  54.828327  29.349361  13.750708
  12444.221  12444.200  0.500  0.623419  54.812125  29.385239  13.779100
  12448.926  12448.900  0.500  0.621650  54.741213  29.399173  13.794745
  12453.621  12453.620  0.500  0.620272  54.552637  29.338315  13.776293
  12458.401  12458.360  0.500  0.618454  54.624189  29.430240  13.829741
  12463.117  12463.110  0.500  0.616800  54.560529  29.444619  13.843855
  12467.931  12467.890  0.500  0.615291  54.488549  29.450156  13.854736
  12472.695  12472.690  0.500  0.613607  54.452128  29.480093  13.874148
  12477.544  12477.500  0.500  0.611708  54.381310  29.497705  13.888745
  12482.343  12482.330  0.500  0.610279  54.307836  29.499986  13.893953
  12487.206  12487.190  0.500  0.608568  54.037840  29.403584  13.851198
  12492.093  12492.060  0.500  0.606996  54.219812  29.549010  13.926669
  12496.964  12496.950  0.500  0.605441  54.154925  29.559568  13.938520
  12501.901  12501.860  0.500  0.603800  54.090774  29.573055  13.947463
  12506.800  12506.790  0.500  0.602379  54.025934  29.579603  13.959030
  12511.757  12511.730  0.500  0.600721  53.961710  29.593472  13.974429
  12516.740  12516.700  0.500  0.599258  53.898608  29.602154  13.987280
  12521.733  12521.690  0.500  0.597814  53.839970  29.612651  14.003890
  12526.709  12526.690  0.500  0.596228  53.774635  29.623665  14.018532
  12531.738  12531.720  0.500  0.594780  53.713643  29.632965  14.034782
  12536.798  12536.760  0.500  0.593413  53.639586  29.632565  14.046931
  12541.855  12541.820  0.500  0.591971  53.335208  29.506942  13.998430
  12546.923  12546.900  0.500  0.590703  53.535176  29.655162  14.080928
  12552.057  12552.000  0.500  0.589296  53.467643  29.659433  14.094689
  12557.147  12557.120  0.500  0.587940  53.401116  29.662728  14.106163
  12562.297  12562.260  0.500  0.586544  53.335951  29.667930  14.119569
  12567.451  12567.420  0.500  0.585253  53.269456  29.669229  14.130678
  12572.623  12572.600  0.500  0.583725  53.215302  29.684387  14.146199
  12577.854  12577.790  0.500  0.582371  53.125886  29.674669  14.149384
  12583.041  12583.010  0.500  0.580964  53.077818  29.689553  14.164727
  12588.288  12588.240  0.500  0.579548  53.012883  29.695241  14.174923
  12593.526  12593.490  0.500  0.578295  52.956411  29.700805  14.185978
  12598.803  12598.760  0.500  0.576842  52.883506  29.703051  14.194469
  12604.098  12604.050  0.500  0.575487  52.814126  29.704309  14.203538
  12609.383  12609.360  0.500  0.573883  52.753612  29.717902  14.218831
  12614.722  12614.690  0.500  0.572527  52.690018  29.722342  14.229525
  12620.086  12620.040  0.500  0.570953  52.619369  29.729254  14.242959
  12625.434  12625.410  0.500  0.569409  52.550594  29.736261  14.255914
  12630.814  12630.790  0.500  0.568039  52.493819  29.744870  14.271456
  12636.248  12636.200  0.500  0.566451  52.411908  29.745645  14.281446
  12641.672  12641.620  0.500  0.564924  52.315880  29.736517  14.287624
  12647.108  12647.070  0.500  0.563287  52.301256  29.776911  14.319566
  12652.584  12652.530  0.500  0.561560  52.227774  29.786472  14.332331
  12658.030  12658.010  0.500  0.560027  52.165791  29.796761  14.349624
  12663.543  12663.510  0.500  0.558459  52.095613  29.803377  14.364402
  12669.068  12669.030  0.500  0.556897  52.027805  29.811116  14.377627
  12674.619  12674.570  0.500  0.555085  51.961759  29.827277  14.392717
  12680.161  12680.120  0.500  0.553571  51.894671  29.833901  14.407459
  12685.736  12685.700  0.500  0.551829  51.822818  29.844530  14.419154
  12691.344  12691.300  0.500  0.550300  51.759008  29.853387  14.435237
  12696.957  12696.910  0.500  0.548700  51.681146  29.856206  14.442580
  12702.603  12702.550  0.500  0.547084  51.613702  29.865489  14.456306
  12708.219  12708.200  0.500  0.545454  51.546093  29.875020  14.466924
  12713.904  12713.870  0.500  0.543818  51.471420  29.880591  14.477261
  12719.600  12719.560  0.500  0.542368  51.398607  29.881595  14.486820
