# XDI/1.0 BlueSky/1.10.0 BMM/2023-1.0-py310-tiled
# Beamline.name: BMM (06BM) -- Beamline for Materials Measurement (NIST)
# Beamline.xray_source: NSLS-II three-pole wiggler
# Beamline.collimation: paraboloid mirror, 5 nm Rh on 30 nm Pt
# Beamline.focusing: not in use
# Beamline.harmonic_rejection: flat mirror, Pt stripe, pitch = 7.0 mrad relative to beam
# Beamline.software: Bluesky 1.10.0, Ophyd 1.7.0, DataBroker 2.0.0b13, Python 3.10.8, 2023-1.0-py310-tiled
# Detector.I0: 10 cm N2
# Detector.I1: 25 cm N2
# Detector.I2: 25 cm N2
# Element.symbol: As
# Element.edge: K
# Element.reference: As
# Element.reference_material: As2O3
# Facility.name: NSLS-II
# Facility.energy: 3.0
# Facility.current: 400.7
# Facility.mode: top-off
# Facility.GUP: 301027
# Facility.SAF: 310583
# Facility.cycle: 2023-2
# Mono.name: Si(111)
# Mono.d_spacing: 3.1351860
# Mono.encoder_resolution: 0.0000050 deg/ct
# Mono.angle_offset: 16.0754326 deg
# Mono.scan_mode: pseudo channel cut
# Mono.scan_type: step
# Mono.direction: forward in energy
# Sample.name: As2O5
# Sample.prep: powder in PEG pellet
# Sample.x: 115.008 mm
# Sample.y: 114.461 mm
# Sample.SDD_position: 170.000 mm
# Scan.experimenters: Bruce Ravel
# Scan.edge_energy: 11866.7
# Scan.start_time: 2023-07-10T16:20:04
# Scan.end_time: 2023-07-10T16:27:59
# Scan.transient_id: 90281
# Scan.uid: b1ddc8d3-8b28-4d39-82b4-305d47601d76
# Scan.plot_hint: ln(I0/It)  --  ln($5/$6)
# Column.1: energy eV
# Column.2: requested_energy eV
# Column.3: measurement_time seconds
# Column.4: xmu 
# Column.5: I0 nA
# Column.6: It nA
# Column.7: Ir nA
# ///////////
# sample courtesy Evan Jahrman, NIST
# -----------
# energy  requested_energy  measurement_time  xmu  I0  It  Ir
  11666.684  11666.700  0.500  0.216034  65.096424  52.448686  35.629150
  11676.709  11676.700  0.500  0.213857  65.003516  52.488012  35.688931
  11686.735  11686.700  0.500  0.211723  64.858849  52.483030  35.719383
  11696.730  11696.700  0.500  0.209525  64.742807  52.504439  35.758060
  11706.719  11706.700  0.500  0.207386  64.607046  52.506514  35.798649
  11716.743  11716.700  0.500  0.205224  64.482841  52.518994  35.834608
  11726.767  11726.700  0.500  0.203169  64.329199  52.501654  35.855859
  11736.730  11736.700  0.500  0.201255  64.046053  52.370701  35.796828
  11746.782  11746.700  0.500  0.199232  63.839267  52.307318  35.780499
  11756.714  11756.700  0.500  0.197326  63.809263  52.382479  35.864648
  11766.735  11766.700  0.500  0.195416  63.783533  52.461450  35.944188
  11776.743  11776.700  0.500  0.193614  63.461955  52.291144  35.846787
  11786.726  11786.700  0.500  0.191943  63.519284  52.425915  35.965505
  11796.750  11796.700  0.500  0.190470  63.395857  52.401165  35.970692
  11806.743  11806.700  0.500  0.189130  63.024963  52.164410  35.818787
  11816.754  11816.700  0.500  0.188306  63.093549  52.264238  35.899584
  11826.739  11826.700  0.500  0.187988  62.952583  52.164079  35.815439
  11836.729  11836.700  0.500  0.189182  62.840601  52.009155  35.664404
  11838.686  11838.700  0.500  0.189641  62.819521  51.967845  35.620379
  11840.675  11840.700  0.500  0.190258  62.793034  51.913863  35.565931
  11842.670  11842.700  0.500  0.191006  62.769738  51.855823  35.501592
  11844.678  11844.700  0.500  0.192054  62.742664  51.779163  35.420679
  11846.669  11846.700  0.500  0.193339  62.714847  51.689719  35.319750
  11848.678  11848.700  0.500  0.194943  62.508517  51.437094  35.100558
  11850.676  11850.700  0.500  0.196973  62.659421  51.456730  35.059081
  11852.663  11852.700  0.500  0.199445  62.638566  51.312600  34.889011
  11854.668  11854.700  0.500  0.202706  62.588460  51.104615  34.644842
  11856.680  11856.700  0.500  0.207051  62.415141  50.742137  34.267974
  11856.962  11857.000  0.500  0.207792  62.447698  50.731012  34.239272
  11857.256  11857.300  0.500  0.208447  62.476008  50.720762  34.205240
  11857.561  11857.600  0.500  0.209366  62.521407  50.711021  34.173131
  11857.849  11857.900  0.500  0.210231  62.528184  50.672649  34.123461
  11858.161  11858.200  0.500  0.211084  62.531400  50.632059  34.064238
  11858.467  11858.500  0.500  0.212048  62.499954  50.557839  33.984327
  11858.755  11858.800  0.500  0.213061  62.454592  50.469982  33.897495
  11859.067  11859.100  0.500  0.214149  62.371709  50.348204  33.780131
  11859.354  11859.400  0.500  0.215177  62.296745  50.236030  33.669336
  11859.667  11859.700  0.500  0.216377  62.238220  50.128637  33.554267
  11859.960  11860.000  0.500  0.217618  62.189511  50.027293  33.449820
  11860.254  11860.300  0.500  0.218985  62.175032  49.947326  33.353417
  11860.554  11860.600  0.500  0.220425  62.194787  49.891263  33.269965
  11860.854  11860.900  0.500  0.221758  62.219041  49.844240  33.187748
  11861.172  11861.200  0.500  0.223345  62.274868  49.809878  33.109544
  11861.472  11861.500  0.500  0.224995  62.342484  49.781746  33.037300
  11861.766  11861.800  0.500  0.226662  62.386452  49.733868  32.948146
  11862.072  11862.100  0.500  0.228475  62.372436  49.632608  32.817259
  11862.366  11862.400  0.500  0.230325  62.331083  49.508028  32.672382
  11862.685  11862.700  0.500  0.232430  62.297348  49.377198  32.511472
  11862.979  11863.000  0.500  0.234407  62.267911  49.256387  32.361969
  11863.285  11863.300  0.500  0.236692  62.258843  49.136800  32.199574
  11863.579  11863.600  0.500  0.239050  62.279300  49.037214  32.046424
  11863.891  11863.900  0.500  0.241548  62.317710  48.945009  31.887456
  11864.192  11864.200  0.500  0.244404  62.361987  48.840102  31.714669
  11864.492  11864.500  0.500  0.247377  62.394376  48.720420  31.530854
  11864.798  11864.800  0.500  0.250488  62.417946  48.587407  31.320038
  11865.080  11865.100  0.500  0.253847  62.430570  48.434307  31.086808
  11865.398  11865.400  0.500  0.257764  62.439208  48.251639  30.814215
  11865.686  11865.700  0.500  0.261583  62.427531  48.058701  30.535166
  11865.993  11866.000  0.500  0.266076  62.422319  47.839248  30.211573
  11866.268  11866.300  0.500  0.270599  62.419810  47.621449  29.891515
  11866.587  11866.600  0.500  0.275944  62.419399  47.367321  29.502457
  11866.875  11866.900  0.500  0.281326  62.411417  47.107011  29.110619
  11867.181  11867.200  0.500  0.287817  62.402218  46.795363  28.636086
  11867.476  11867.500  0.500  0.294500  62.407388  46.487526  28.150402
  11867.788  11867.800  0.500  0.302142  62.392205  46.122403  27.590297
  11868.076  11868.100  0.500  0.310343  62.398755  45.750498  26.994419
  11868.383  11868.400  0.500  0.319510  62.381285  45.320312  26.326663
  11868.689  11868.700  0.500  0.330015  62.373719  44.841255  25.563794
  11868.984  11869.000  0.500  0.341320  62.377552  44.339938  24.766432
  11869.302  11869.300  0.500  0.355063  62.364586  43.725629  23.812371
  11869.597  11869.600  0.500  0.369189  62.364584  43.112325  22.858826
  11869.909  11869.900  0.500  0.387465  62.355045  42.325063  21.683177
  11870.197  11870.200  0.500  0.406867  62.320008  41.488465  20.504188
  11870.504  11870.500  0.500  0.430981  62.269844  40.467384  19.151455
  11870.805  11870.800  0.500  0.458577  62.216894  39.332423  17.777449
  11871.099  11871.100  0.500  0.492474  62.173827  37.995215  16.311855
  11871.406  11871.400  0.500  0.532580  62.152678  36.489125  14.845390
  11871.688  11871.700  0.500  0.578727  62.165510  34.850699  13.462093
  11872.007  11872.000  0.500  0.637992  62.200399  32.863731  12.032190
  11872.283  11872.300  0.500  0.700090  62.242855  30.906115  10.843940
  11872.583  11872.600  0.500  0.776817  62.276902  28.639129  9.684695
  11872.884  11872.900  0.500  0.865259  62.293437  26.221944  8.638000
  11873.190  11873.200  0.500  0.969375  62.306614  23.634137  7.672343
  11873.485  11873.500  0.500  1.090180  62.317091  20.948273  6.780632
  11873.773  11873.800  0.500  1.224599  62.317073  18.313456  5.964818
  11874.099  11874.100  0.500  1.399238  62.318309  15.379221  5.077568
  11874.387  11874.400  0.500  1.585358  62.309598  12.765643  4.281473
  11874.700  11874.700  0.500  1.828100  62.306496  10.013817  3.422294
  11875.001  11875.000  0.500  2.106115  62.309291  7.583659  2.638101
  11875.301  11875.300  0.500  2.430258  62.310247  5.484179  1.937439
  11875.602  11875.600  0.500  2.803026  62.305530  3.777354  1.352306
  11875.897  11875.900  0.500  3.217975  62.309567  2.494630  0.900107
  11876.210  11876.200  0.500  3.684297  62.297389  1.564589  0.566712
  11876.510  11876.500  0.500  4.091999  62.289926  1.040604  0.376106
  11876.811  11876.800  0.500  4.374879  62.283591  0.784130  0.283054
  11877.094  11877.100  0.500  4.416089  62.285812  0.752499  0.274296
  11877.413  11877.400  0.500  4.233177  62.268435  0.903280  0.336731
  11877.707  11877.700  0.500  3.948289  62.257694  1.200806  0.458448
  11878.002  11878.000  0.500  3.635275  62.259970  1.642210  0.640086
  11878.297  11878.300  0.500  3.327752  62.260871  2.233525  0.887698
  11878.585  11878.600  0.500  3.068202  62.247838  2.894816  1.168224
  11878.893  11878.900  0.500  2.823449  62.238000  3.696983  1.514190
  11879.187  11879.200  0.500  2.625702  62.229365  4.504717  1.867540
  11879.488  11879.500  0.500  2.449828  62.223616  5.370423  2.248998
  11879.789  11879.800  0.500  2.305477  62.217394  6.203773  2.618047
  11880.084  11880.100  0.500  2.191300  62.212998  6.953634  2.951951
  11880.403  11880.400  0.500  2.088439  62.206444  7.706159  3.284751
  11880.692  11880.700  0.500  2.014123  62.196305  8.299308  3.542608
  11881.005  11881.000  0.500  1.947750  62.197573  8.869033  3.782110
  11881.288  11881.300  0.500  1.898245  62.192090  9.318321  3.961640
  11881.614  11881.600  0.500  1.855240  62.186814  9.726979  4.112943
  11881.902  11881.900  0.500  1.823367  62.173713  10.039882  4.215669
  11882.209  11882.200  0.500  1.797092  62.168599  10.306332  4.289541
  11882.504  11882.500  0.500  1.777189  62.155858  10.511352  4.337766
  11882.812  11882.800  0.500  1.761305  62.147177  10.678162  4.369450
  11883.100  11883.100  0.500  1.750967  62.140313  10.787932  4.383604
  11883.402  11883.400  0.500  1.743595  62.126549  10.865345  4.389169
  11883.703  11883.700  0.500  1.739525  62.101293  10.905221  4.389347
  11884.010  11884.000  0.500  1.737826  62.046141  10.914060  4.384905
  11884.299  11884.300  0.500  1.738024  61.945433  10.894194  4.377039
  11884.582  11884.600  0.500  1.740172  61.804395  10.846062  4.365779
  11884.895  11884.900  0.500  1.743455  61.638892  10.781564  4.352316
  11885.184  11885.200  0.500  1.747342  61.507812  10.716902  4.342218
  11885.498  11885.500  0.500  1.752209  61.435466  10.652323  4.335083
  11885.780  11885.800  0.500  1.757063  61.433649  10.600429  4.332313
  11886.112  11886.100  0.500  1.762391  61.462205  10.549006  4.328938
  11886.389  11886.400  0.500  1.767430  61.545125  10.510140  4.326931
  11886.703  11886.700  0.500  1.772606  61.648736  10.473482  4.324818
  11887.004  11887.000  0.500  1.777594  61.770977  10.442039  4.322434
  11887.305  11887.300  0.500  1.782607  61.877712  10.407776  4.315158
  11887.600  11887.600  0.500  1.787584  61.947186  10.367734  4.307231
  11887.902  11887.900  0.500  1.792170  61.987996  10.327096  4.295160
  11888.209  11888.200  0.500  1.797166  62.013755  10.279900  4.282195
  11888.505  11888.500  0.500  1.801806  62.009732  10.231649  4.267681
  11888.812  11888.800  0.500  1.806542  62.019928  10.184977  4.253730
  11889.101  11889.100  0.500  1.810972  62.020956  10.140124  4.242040
  11889.415  11889.400  0.500  1.815497  62.022075  10.094525  4.231790
  11889.704  11889.700  0.500  1.819144  62.012129  10.056171  4.225299
  11890.006  11890.000  0.500  1.822766  62.011055  10.019639  4.220939
  11890.289  11890.300  0.500  1.825855  62.004677  9.987709  4.221066
  11890.615  11890.600  0.500  1.828354  62.000035  9.962030  4.224866
  11890.879  11890.900  0.500  1.830050  61.992089  9.943876  4.230487
  11891.199  11891.200  0.500  1.831434  61.987906  9.929449  4.238207
  11891.489  11891.500  0.500  1.831822  61.987090  9.925468  4.246466
  11891.685  11891.700  0.500  1.831602  61.988493  9.927880  4.253919
  11892.695  11892.690  0.500  1.823645  61.972658  10.004637  4.313429
  11893.698  11893.690  0.500  1.803544  61.951156  10.204226  4.431499
  11894.739  11894.710  0.500  1.773634  61.956744  10.514998  4.621370
  11895.779  11895.760  0.500  1.737538  61.917006  10.894489  4.844480
  11896.833  11896.820  0.500  1.698876  61.903335  11.321435  5.062896
  11897.898  11897.900  0.500  1.657098  61.888090  11.801542  5.285964
  11899.014  11899.000  0.500  1.612779  61.861368  12.331004  5.525142
  11900.141  11900.120  0.500  1.567385  61.813516  12.893682  5.784485
  11901.288  11901.260  0.500  1.519083  61.560982  13.476474  6.057472
  11902.434  11902.410  0.500  1.469023  61.157960  14.075512  6.337614
  11903.594  11903.590  0.500  1.417326  61.442967  14.891389  6.724549
  11904.790  11904.780  0.500  1.366318  61.753467  15.749878  7.138059
  11906.018  11906.000  0.500  1.317064  61.771663  16.549914  7.529212
  11907.258  11907.230  0.500  1.273633  61.762594  17.281988  7.883327
  11908.511  11908.480  0.500  1.237354  61.745547  17.915530  8.193526
  11909.764  11909.750  0.500  1.210367  61.737338  18.403158  8.435349
  11911.048  11911.040  0.500  1.192497  61.721491  18.730171  8.586445
  11912.357  11912.350  0.500  1.183533  61.695992  18.891002  8.639614
  11913.697  11913.680  0.500  1.181571  61.671535  18.920613  8.611535
  11915.056  11915.030  0.500  1.185899  61.815385  18.882831  8.544601
  11916.422  11916.400  0.500  1.195160  61.571309  18.634898  8.385064
  11917.794  11917.780  0.500  1.207978  61.138418  18.268207  8.185054
  11919.210  11919.190  0.500  1.223383  61.556276  18.111889  8.088526
  11920.639  11920.610  0.500  1.240649  61.759363  17.860590  7.961226
  11922.067  11922.050  0.500  1.259768  61.760349  17.522631  7.798941
  11923.527  11923.510  0.500  1.279378  61.737725  17.176065  7.623769
  11924.994  11924.990  0.500  1.299091  61.713374  16.834152  7.445083
  11926.486  11926.490  0.500  1.319014  61.694008  16.496902  7.261359
  11928.028  11928.010  0.500  1.339020  61.682458  16.167127  7.081292
  11929.557  11929.550  0.500  1.358252  61.655448  15.852216  6.915595
  11931.112  11931.110  0.500  1.376101  61.638133  15.567406  6.771877
  11932.674  11932.680  0.500  1.393281  61.603900  15.293751  6.642160
  11934.298  11934.280  0.500  1.410397  61.325728  14.966316  6.488667
  11935.903  11935.890  0.500  1.427467  60.930925  14.618299  6.323642
  11937.522  11937.530  0.500  1.444614  61.439290  14.489667  6.263354
  11939.172  11939.180  0.500  1.461037  61.492466  14.265983  6.164480
  11940.854  11940.850  0.500  1.471807  61.480735  14.110467  6.093350
  11942.536  11942.540  0.500  1.481747  61.460378  13.966275  6.025221
  11944.262  11944.250  0.500  1.494171  61.441446  13.789579  5.941274
  11945.970  11945.980  0.500  1.507541  61.412644  13.600066  5.852546
  11947.734  11947.730  0.500  1.519917  61.396304  13.429221  5.776846
  11949.505  11949.490  0.500  1.528643  61.369811  13.306801  5.727773
  11951.277  11951.280  0.500  1.534347  61.335405  13.223689  5.702414
  11953.030  11953.080  0.500  1.539119  61.311123  13.155527  5.691733
  11954.890  11954.910  0.500  1.542885  61.290715  13.101717  5.683204
  11956.738  11956.750  0.500  1.545315  61.263716  13.064162  5.678389
  11958.592  11958.610  0.500  1.546198  61.238512  13.047259  5.680749
  11960.603  11960.490  0.500  1.545072  61.206104  13.055050  5.692653
  11962.347  11962.390  0.500  1.543066  61.177202  13.075082  5.710281
  11964.602  11964.310  0.500  1.538686  61.142539  13.125036  5.744087
  11966.403  11966.250  0.500  1.533247  61.120856  13.191944  5.783683
  11968.230  11968.210  0.500  1.527181  61.090557  13.265626  5.822890
  11970.175  11970.180  0.500  1.519419  61.063072  13.362976  5.871740
  11972.184  11972.180  0.500  1.510452  61.031573  13.476388  5.930723
  11974.206  11974.190  0.500  1.500470  61.005092  13.605677  5.993856
  11976.234  11976.220  0.500  1.490050  60.972969  13.740954  6.062914
  11978.295  11978.280  0.500  1.478256  60.944536  13.897487  6.141378
  11980.344  11980.350  0.500  1.466316  60.916449  14.057945  6.219659
  11982.437  11982.440  0.500  1.454004  60.891718  14.226311  6.305607
  11984.550  11984.550  0.500  1.441302  60.857819  14.400146  6.396354
  11986.695  11986.680  0.500  1.428742  60.831846  14.575923  6.487621
  11988.834  11988.820  0.500  1.416885  60.801674  14.742469  6.572260
  11991.006  11990.990  0.500  1.405307  60.774283  14.907432  6.652373
  11993.165  11993.180  0.500  1.395086  60.734680  15.050762  6.721623
  11995.370  11995.380  0.500  1.386033  60.711249  15.181784  6.784439
  11997.612  11997.600  0.500  1.377972  60.684227  15.297844  6.838104
  11999.856  11999.850  0.500  1.371562  60.648782  15.387222  6.876172
  12002.119  12002.110  0.500  1.366466  60.614563  15.457109  6.904154
  12004.377  12004.390  0.500  1.362655  60.590675  15.510016  6.919692
  12006.680  12006.690  0.500  1.360195  60.558875  15.540061  6.924811
  12009.015  12009.010  0.500  1.359051  60.526638  15.549556  6.917547
  12011.376  12011.350  0.500  1.358936  60.504123  15.545562  6.904796
  12013.719  12013.700  0.500  1.359762  60.468921  15.523688  6.885234
  12016.082  12016.080  0.500  1.361388  60.431170  15.488803  6.861820
  12018.452  12018.470  0.500  1.363722  60.402340  15.445318  6.834801
  12020.880  12020.890  0.500  1.366725  60.371542  15.391151  6.806182
  12023.333  12023.320  0.500  1.370074  60.341425  15.332037  6.774713
  12025.795  12025.770  0.500  1.373486  60.312119  15.272404  6.742700
  12028.257  12028.250  0.500  1.377590  60.274190  15.200278  6.709167
  12030.733  12030.740  0.500  1.381408  60.254579  15.137434  6.677880
  12033.260  12033.250  0.500  1.385271  60.211553  15.068305  6.645025
  12035.782  12035.770  0.500  1.389220  60.175727  14.999988  6.612792
  12038.343  12038.320  0.500  1.392856  60.135883  14.935641  6.584928
  12040.886  12040.890  0.500  1.397151  60.093668  14.861196  6.555681
  12043.468  12043.470  0.500  1.402695  60.050688  14.768460  6.519938
  12046.102  12046.080  0.500  1.406242  59.885847  14.675780  6.485915
  12048.711  12048.700  0.500  1.409267  58.304354  14.245061  6.301179
  12051.360  12051.350  0.500  1.411687  59.831511  14.582844  6.458763
  12054.004  12054.010  0.500  1.411936  59.879133  14.590809  6.469356
  12056.693  12056.690  0.500  1.413216  59.861503  14.567856  6.465543
  12059.396  12059.390  0.500  1.414424  59.827730  14.542065  6.462132
  12062.113  12062.110  0.500  1.415218  59.800864  14.523997  6.460032
  12064.831  12064.850  0.500  1.415392  59.764679  14.512686  6.460452
  12067.601  12067.600  0.500  1.414698  59.727391  14.513700  6.462356
  12070.385  12070.380  0.500  1.413723  59.687065  14.518048  6.466370
  12073.183  12073.170  0.500  1.412292  59.652886  14.530510  6.472571
  12075.995  12075.990  0.500  1.410173  59.612695  14.551525  6.484608
  12078.840  12078.820  0.500  1.407737  59.575771  14.577981  6.499964
  12081.680  12081.670  0.500  1.404765  59.537003  14.611860  6.519729
  12084.553  12084.550  0.500  1.401787  59.498288  14.645896  6.540405
  12087.434  12087.440  0.500  1.398432  59.460906  14.685893  6.564668
  12090.361  12090.350  0.500  1.394779  59.404627  14.725679  6.587083
  12093.271  12093.270  0.500  1.391026  59.259103  14.744838  6.600676
  12096.219  12096.220  0.500  1.387052  59.350838  14.826474  6.639642
  12099.202  12099.190  0.500  1.383034  59.311594  14.876315  6.665383
  12102.185  12102.170  0.500  1.379644  59.273050  14.917145  6.686403
  12105.177  12105.180  0.500  1.375856  59.234430  14.964000  6.710348
  12108.215  12108.200  0.500  1.371672  59.197929  15.017481  6.741067
  12111.273  12111.250  0.500  1.367006  59.149121  15.075273  6.772937
  12114.334  12114.310  0.500  1.362694  59.124175  15.134024  6.804055
  12117.389  12117.390  0.500  1.358752  59.074385  15.181014  6.832552
  12120.522  12120.490  0.500  1.354997  59.029826  15.226627  6.856644
  12123.613  12123.610  0.500  1.351537  58.990583  15.269246  6.880472
  12126.750  12126.750  0.500  1.348141  58.938788  15.307744  6.898631
  12129.927  12129.900  0.500  1.345029  58.695965  15.292193  6.895760
  12133.080  12133.080  0.500  1.342295  58.871817  15.380000  6.935549
  12136.279  12136.270  0.500  1.339636  58.828295  15.409536  6.948374
  12139.519  12139.490  0.500  1.337512  58.782386  15.430250  6.955491
  12142.741  12142.720  0.500  1.335676  58.747190  15.449352  6.961725
  12145.972  12145.970  0.500  1.334163  58.699863  15.460279  6.963139
  12149.274  12149.250  0.500  1.332688  58.653231  15.470805  6.960868
  12152.566  12152.540  0.500  1.331808  58.612894  15.473778  6.959934
  12155.853  12155.850  0.500  1.331049  58.561751  15.472008  6.957408
  12159.200  12159.170  0.500  1.330358  58.509156  15.468802  6.953690
  12162.543  12162.520  0.500  1.329869  58.271821  15.413597  6.929454
  12165.887  12165.890  0.500  1.329614  58.434545  15.460575  6.956322
  12169.297  12169.270  0.500  1.329136  58.388574  15.455800  6.956210
  12172.710  12172.680  0.500  1.328776  58.337728  15.447903  6.959907
  12176.124  12176.100  0.500  1.328387  58.289098  15.441029  6.965121
  12179.567  12179.550  0.500  1.328110  58.244674  15.433532  6.969191
  12183.030  12183.010  0.500  1.327735  58.198073  15.426963  6.976370
  12186.496  12186.490  0.500  1.327111  58.151298  15.424189  6.982576
  12190.009  12189.990  0.500  1.326675  58.106390  15.419005  6.988805
  12193.524  12193.510  0.500  1.326045  58.059648  15.416306  6.993375
  12197.067  12197.050  0.500  1.325342  58.012415  15.414596  7.000235
  12200.638  12200.600  0.500  1.324439  57.825107  15.378706  6.988007
  12204.198  12204.180  0.500  1.323509  57.928329  15.420490  7.010590
  12207.805  12207.780  0.500  1.322401  57.877358  15.424014  7.014852
  12211.402  12211.390  0.500  1.321062  57.835448  15.433485  7.020352
  12215.027  12215.020  0.500  1.319406  57.790446  15.447039  7.026013
  12218.700  12218.680  0.500  1.317901  57.740142  15.456847  7.033918
  12222.368  12222.350  0.500  1.315913  57.686523  15.473216  7.040674
  12226.039  12226.040  0.500  1.314123  57.645913  15.490025  7.049781
  12229.770  12229.750  0.500  1.311983  57.600996  15.511117  7.062203
  12233.478  12233.480  0.500  1.309660  57.457763  15.508530  7.063034
  12237.240  12237.220  0.500  1.307412  56.709365  15.340978  6.989351
  12240.998  12240.990  0.500  1.304592  57.386280  15.567939  7.098732
  12244.784  12244.780  0.500  1.302124  57.358696  15.598900  7.119179
  12248.586  12248.580  0.500  1.299226  57.316393  15.632627  7.142064
  12252.430  12252.410  0.500  1.296499  57.264356  15.661098  7.163536
  12256.263  12256.250  0.500  1.293562  57.073001  15.654665  7.167610
  12260.118  12260.110  0.500  1.290703  57.152362  15.721312  7.205308
  12264.001  12263.990  0.500  1.287777  56.170341  15.496467  7.112488
  12267.933  12267.890  0.500  1.284628  56.957884  15.763299  7.238217
  12271.802  12271.810  0.500  1.281781  56.868130  15.783319  7.252046
  12275.765  12275.750  0.500  1.278846  56.949868  15.852474  7.288974
  12279.718  12279.710  0.500  1.275856  56.889618  15.883127  7.305089
  12283.693  12283.680  0.500  1.273138  56.717512  15.878169  7.304393
  12287.704  12287.680  0.500  1.270440  56.740989  15.927653  7.331121
  12291.697  12291.690  0.500  1.267781  55.376537  15.586033  7.173377
  12295.753  12295.730  0.500  1.265176  56.603636  15.972964  7.350937
  12299.778  12299.780  0.500  1.262642  56.417504  15.960821  7.344227
  12303.872  12303.850  0.500  1.260449  56.533737  16.028830  7.376212
  12307.948  12307.940  0.500  1.258080  56.478050  16.051020  7.385836
  12312.067  12312.050  0.500  1.256102  56.426853  16.068213  7.396564
  12316.202  12316.180  0.500  1.254154  56.368976  16.083027  7.404404
  12320.354  12320.330  0.500  1.252067  55.525784  15.875561  7.315427
  12324.527  12324.490  0.500  1.250345  56.138572  16.078415  7.410499
  12328.691  12328.680  0.500  1.248796  56.169390  16.112185  7.431896
  12332.923  12332.880  0.500  1.246832  56.127160  16.131728  7.447206
  12337.132  12337.110  0.500  1.245280  56.073561  16.141346  7.458369
  12341.377  12341.350  0.500  1.243745  56.022588  16.151446  7.469802
  12345.645  12345.610  0.500  1.242067  55.962959  16.161365  7.480834
  12349.890  12349.890  0.500  1.240574  55.777877  16.131973  7.473479
  12354.217  12354.190  0.500  1.238976  55.859312  16.181365  7.504024
  12358.520  12358.510  0.500  1.237433  55.724981  16.167379  7.504656
  12362.873  12362.850  0.500  1.235689  55.736901  16.199071  7.524562
  12367.236  12367.210  0.500  1.234186  55.694406  16.211055  7.535498
  12371.603  12371.590  0.500  1.232633  55.632941  16.218332  7.543704
  12376.032  12375.980  0.500  1.230988  55.585592  16.231213  7.553275
  12380.424  12380.400  0.500  1.229156  55.515228  16.240393  7.560114
  12384.853  12384.830  0.500  1.227382  55.070234  16.138814  7.515081
  12389.312  12389.280  0.500  1.225429  55.426717  16.275047  7.582303
  12393.754  12393.750  0.500  1.223656  55.370423  16.287358  7.590099
  12398.267  12398.240  0.500  1.221563  55.301396  16.301134  7.600429
  12402.782  12402.750  0.500  1.219568  55.242870  16.316415  7.610919
  12407.308  12407.280  0.500  1.217256  55.185320  16.337138  7.623519
  12411.850  12411.830  0.500  1.215202  55.120610  16.351534  7.636623
  12416.423  12416.400  0.500  1.212875  55.046759  16.367664  7.648312
  12421.006  12420.980  0.500  1.210584  55.007862  16.393619  7.667002
  12425.626  12425.590  0.500  1.208099  54.945132  16.415657  7.682117
  12430.249  12430.210  0.500  1.205842  54.861213  16.427626  7.695667
  12434.896  12434.860  0.500  1.203277  54.756351  16.438342  7.707934
  12439.534  12439.520  0.500  1.200695  54.742778  16.476752  7.731864
  12444.221  12444.200  0.500  1.198112  54.722761  16.513335  7.756246
  12448.920  12448.900  0.500  1.195374  54.658412  16.539136  7.772361
  12453.655  12453.620  0.500  1.192964  54.465534  16.520541  7.770850
  12458.388  12458.360  0.500  1.190408  54.542745  16.586293  7.805682
  12463.137  12463.110  0.500  1.187764  54.479071  16.610800  7.822651
  12467.918  12467.890  0.500  1.185122  54.514872  16.665685  7.850987
  12472.716  12472.690  0.500  1.182724  54.567986  16.721967  7.882533
  12477.537  12477.500  0.500  1.180259  54.497302  16.741528  7.895358
  12482.363  12482.330  0.500  1.177765  54.421914  16.760109  7.906486
  12487.213  12487.190  0.500  1.175271  54.157396  16.720292  7.887869
  12492.100  12492.060  0.500  1.172947  54.340331  16.815813  7.937714
  12496.992  12496.950  0.500  1.170545  54.266698  16.833406  7.948685
  12501.907  12501.860  0.500  1.168214  54.205558  16.853683  7.961367
  12506.813  12506.790  0.500  1.165975  54.146309  16.873002  7.974542
  12511.771  12511.730  0.500  1.163704  54.077711  16.889943  7.986495
  12516.740  12516.700  0.500  1.161661  54.018888  16.906077  8.001107
  12521.733  12521.690  0.500  1.159482  53.950173  16.921393  8.013437
  12526.709  12526.690  0.500  1.157414  53.890063  16.937531  8.028626
  12531.772  12531.720  0.500  1.155242  53.822523  16.953084  8.041936
  12536.798  12536.760  0.500  1.153189  53.748944  16.964704  8.053820
  12541.896  12541.820  0.500  1.151123  53.460549  16.908583  8.032670
  12546.861  12546.900  0.500  1.148950  53.646743  17.004376  8.085663
  12551.982  12552.000  0.500  1.147098  53.583421  17.015795  8.099420
  12557.092  12557.120  0.500  1.145068  53.514579  17.028468  8.111099
  12562.242  12562.260  0.500  1.143045  53.448620  17.041919  8.124350
  12567.416  12567.420  0.500  1.141086  53.386967  17.055633  8.135486
  12572.602  12572.600  0.500  1.139044  53.325505  17.070820  8.147357
  12577.799  12577.790  0.500  1.137143  53.239257  17.075640  8.155963
  12583.021  12583.010  0.500  1.135073  53.188718  17.094775  8.168371
  12588.247  12588.240  0.500  1.133080  53.130264  17.110059  8.180165
  12593.512  12593.490  0.500  1.130960  53.063010  17.124678  8.190275
  12598.782  12598.760  0.500  1.128772  52.995265  17.140267  8.202358
  12604.077  12604.050  0.500  1.126474  52.924074  17.156619  8.213257
  12609.411  12609.360  0.500  1.124423  52.864010  17.172345  8.228031
  12614.715  12614.690  0.500  1.122140  52.794090  17.188822  8.239985
  12620.079  12620.040  0.500  1.119921  52.726358  17.204911  8.254193
  12625.441  12625.410  0.500  1.117632  52.658262  17.222067  8.267450
  12630.821  12630.790  0.500  1.115402  52.602130  17.242111  8.284162
  12636.248  12636.200  0.500  1.112982  52.517802  17.256178  8.297019
  12641.658  12641.620  0.500  1.110550  52.418223  17.265396  8.308154
  12647.094  12647.070  0.500  1.108283  52.410093  17.301896  8.331767
  12652.556  12652.530  0.500  1.105869  52.341547  17.321023  8.347100
  12658.044  12658.010  0.500  1.103407  52.274053  17.341330  8.364138
  12663.550  12663.510  0.500  1.101091  52.209681  17.360146  8.379411
  12669.068  12669.030  0.500  1.098578  52.139812  17.380525  8.394487
  12674.598  12674.570  0.500  1.096082  52.070518  17.400820  8.409295
  12680.154  12680.120  0.500  1.093657  52.006329  17.421563  8.425240
  12685.722  12685.700  0.500  1.091252  51.933658  17.439107  8.438707
  12691.351  12691.300  0.500  1.088750  51.864357  17.459455  8.452851
  12696.943  12696.910  0.500  1.086424  51.799375  17.478201  8.466849
  12702.596  12702.550  0.500  1.084083  51.725630  17.494213  8.479722
  12708.219  12708.200  0.500  1.081593  51.660101  17.515610  8.493294
  12713.911  12713.870  0.500  1.079206  51.587784  17.532890  8.507054
  12719.593  12719.560  0.500  1.076987  51.522697  17.549679  8.521179
