# XDI/1.0 BlueSky/1.10.0 BMM/2023-1.0-py310-tiled
# Beamline.name: BMM (06BM) -- Beamline for Materials Measurement (NIST)
# Beamline.xray_source: NSLS-II three-pole wiggler
# Beamline.collimation: paraboloid mirror, 5 nm Rh on 30 nm Pt
# Beamline.focusing: not in use
# Beamline.harmonic_rejection: flat mirror, Pt stripe, pitch = 7.0 mrad relative to beam
# Beamline.software: Bluesky 1.10.0, Ophyd 1.7.0, DataBroker 2.0.0b13, Python 3.10.8, 2023-1.0-py310-tiled
# Detector.I0: 10 cm N2
# Detector.I1: 25 cm N2
# Detector.I2: 25 cm N2
# Element.symbol: As
# Element.edge: K
# Element.reference: As
# Element.reference_material: As2O3
# Facility.name: NSLS-II
# Facility.energy: 3.0
# Facility.current: 400.4
# Facility.mode: top-off
# Facility.GUP: 301027
# Facility.SAF: 310583
# Facility.cycle: 2023-2
# Mono.name: Si(111)
# Mono.d_spacing: 3.1351860
# Mono.encoder_resolution: 0.0000050 deg/ct
# Mono.angle_offset: 16.0754326 deg
# Mono.scan_mode: pseudo channel cut
# Mono.scan_type: step
# Mono.direction: forward in energy
# Sample.name: C5H11AsO2
# Sample.prep: powder in PEG pellet
# Sample.x: 115.008 mm
# Sample.y: 114.461 mm
# Sample.SDD_position: 170.000 mm
# Scan.experimenters: Bruce Ravel
# Scan.edge_energy: 11866.7
# Scan.start_time: 2023-07-10T17:10:52
# Scan.end_time: 2023-07-10T17:18:47
# Scan.transient_id: 90311
# Scan.uid: 1a66f364-0084-4df2-a304-24d8081f3ab8
# Scan.plot_hint: ln(I0/It)  --  ln($5/$6)
# Column.1: energy eV
# Column.2: requested_energy eV
# Column.3: measurement_time seconds
# Column.4: xmu 
# Column.5: I0 nA
# Column.6: It nA
# Column.7: Ir nA
# ///////////
# sample courtesy Evan Jahrman, NIST
# -----------
# energy  requested_energy  measurement_time  xmu  I0  It  Ir
  11666.713  11666.700  0.500  0.129879  64.987091  57.071799  38.824336
  11676.733  11676.700  0.500  0.127993  64.891743  57.095644  38.873790
  11686.747  11686.700  0.500  0.126117  64.750553  57.078383  38.896508
  11696.754  11696.700  0.500  0.124229  64.627539  57.077571  38.931663
  11706.731  11706.700  0.500  0.122367  64.505749  57.076191  38.959533
  11716.749  11716.700  0.500  0.120400  64.389624  57.085613  39.002822
  11726.749  11726.700  0.500  0.118528  64.229400  57.050262  39.010953
  11736.748  11736.700  0.500  0.116849  63.940123  56.888804  38.935678
  11746.788  11746.700  0.500  0.115061  63.750469  56.821562  38.918393
  11756.750  11756.700  0.500  0.113319  63.721124  56.894437  39.003472
  11766.777  11766.700  0.500  0.111565  63.686259  56.963130  39.079185
  11776.688  11776.700  0.500  0.109890  63.379196  56.783517  38.984880
  11786.695  11786.700  0.500  0.108383  63.424538  56.909823  39.095641
  11796.714  11796.700  0.500  0.106914  63.284257  56.867421  39.084723
  11806.719  11806.700  0.500  0.105775  62.908887  56.594526  38.917746
  11816.729  11816.700  0.500  0.104772  62.988197  56.722733  39.010305
  11826.720  11826.700  0.500  0.104378  62.854203  56.624390  38.928446
  11836.729  11836.700  0.500  0.104908  62.746116  56.497042  38.792103
  11838.674  11838.700  0.500  0.105392  62.722751  56.448712  38.746436
  11840.662  11840.700  0.500  0.105898  62.702794  56.402174  38.694028
  11842.670  11842.700  0.500  0.106351  62.666358  56.343885  38.630291
  11844.672  11844.700  0.500  0.107081  62.642214  56.281051  38.550222
  11846.669  11846.700  0.500  0.108106  62.613705  56.197856  38.456111
  11848.666  11848.700  0.500  0.109247  62.407382  55.948752  38.235236
  11850.664  11850.700  0.500  0.110840  62.548240  55.985779  38.199478
  11852.675  11852.700  0.500  0.112820  62.538304  55.866183  38.034325
  11854.668  11854.700  0.500  0.115770  62.487010  55.655953  37.789131
  11856.662  11856.700  0.500  0.119514  62.309187  55.290144  37.400967
  11856.944  11857.000  0.500  0.120073  62.343737  55.289922  37.378914
  11857.237  11857.300  0.500  0.120730  62.376310  55.282448  37.349741
  11857.561  11857.600  0.500  0.121389  62.411851  55.277523  37.315656
  11857.849  11857.900  0.500  0.122114  62.428942  55.252582  37.270525
  11858.155  11858.200  0.500  0.123008  62.438719  55.211826  37.214013
  11858.473  11858.500  0.500  0.123819  62.426532  55.156343  37.139618
  11858.761  11858.800  0.500  0.124747  62.373508  55.058335  37.043464
  11859.073  11859.100  0.500  0.125704  62.292293  54.934054  36.923098
  11859.367  11859.400  0.500  0.126554  62.212455  54.817051  36.805956
  11859.673  11859.700  0.500  0.127528  62.141488  54.701211  36.684965
  11859.973  11860.000  0.500  0.128730  62.103727  54.602291  36.574968
  11860.273  11860.300  0.500  0.129940  62.080817  54.516179  36.468430
  11860.585  11860.600  0.500  0.131358  62.095797  54.452045  36.375027
  11860.872  11860.900  0.500  0.132673  62.119445  54.401168  36.293709
  11861.172  11861.200  0.500  0.134206  62.167605  54.359992  36.209166
  11861.460  11861.500  0.500  0.135616  62.227815  54.335956  36.135121
  11861.779  11861.800  0.500  0.137290  62.267025  54.279235  36.034874
  11862.072  11862.100  0.500  0.139072  62.273210  54.187978  35.909999
  11862.379  11862.400  0.500  0.140644  62.235162  54.069802  35.760123
  11862.666  11862.700  0.500  0.142540  62.201418  53.938160  35.594904
  11862.960  11863.000  0.500  0.144521  62.175678  53.809094  35.435100
  11863.279  11863.300  0.500  0.146871  62.153759  53.663865  35.248565
  11863.561  11863.600  0.500  0.149117  62.170429  53.557842  35.089443
  11863.879  11863.900  0.500  0.151831  62.211641  53.448092  34.915718
  11864.167  11864.200  0.500  0.154543  62.250872  53.336936  34.733977
  11864.486  11864.500  0.500  0.157796  62.289603  53.196836  34.516605
  11864.786  11864.800  0.500  0.160987  62.308741  53.043604  34.286685
  11865.080  11865.100  0.500  0.164761  62.336400  52.867298  34.030308
  11865.380  11865.400  0.500  0.168644  62.335482  52.661599  33.742881
  11865.692  11865.700  0.500  0.173185  62.331860  52.419997  33.402023
  11865.999  11866.000  0.500  0.178088  62.333323  52.164816  33.054383
  11866.299  11866.300  0.500  0.183583  62.329525  51.875780  32.662158
  11866.593  11866.600  0.500  0.189485  62.328838  51.569943  32.241570
  11866.912  11866.900  0.500  0.196547  62.321278  51.200838  31.732107
  11867.200  11867.200  0.500  0.203781  62.311971  50.824198  31.222283
  11867.500  11867.500  0.500  0.212335  62.305190  50.385835  30.629436
  11867.788  11867.800  0.500  0.221560  62.297235  49.916783  30.008883
  11868.095  11868.100  0.500  0.232544  62.291245  49.366746  29.267901
  11868.395  11868.400  0.500  0.244670  62.282010  48.764524  28.485182
  11868.683  11868.700  0.500  0.257927  62.283181  48.123188  27.651222
  11868.990  11869.000  0.500  0.274835  62.280572  47.314369  26.630911
  11869.278  11869.300  0.500  0.293198  62.267996  46.444100  25.566651
  11869.578  11869.600  0.500  0.315679  62.259244  45.405247  24.336830
  11869.891  11869.900  0.500  0.342539  62.248785  44.194463  22.976792
  11870.191  11870.200  0.500  0.375324  62.230081  42.756224  21.456799
  11870.492  11870.500  0.500  0.415524  62.185432  41.042027  19.779666
  11870.792  11870.800  0.500  0.462624  62.133651  39.121176  18.067547
  11871.093  11871.100  0.500  0.526272  62.084729  36.679883  16.105113
  11871.399  11871.400  0.500  0.601794  62.056407  33.996238  14.188278
  11871.706  11871.700  0.500  0.694339  62.066721  30.996389  12.293158
  11872.007  11872.000  0.500  0.810865  62.110550  27.606494  10.403731
  11872.307  11872.300  0.500  0.942080  62.140539  24.223386  8.725149
  11872.602  11872.600  0.500  1.098142  62.176070  20.735102  7.169443
  11872.914  11872.900  0.500  1.264068  62.204815  17.573012  5.883886
  11873.203  11873.200  0.500  1.434059  62.224727  14.830618  4.853883
  11873.497  11873.500  0.500  1.594623  62.237861  12.633357  4.084204
  11873.792  11873.800  0.500  1.718540  62.226606  11.158964  3.605460
  11874.099  11874.100  0.500  1.796717  62.225027  10.319556  3.366408
  11874.387  11874.400  0.500  1.810445  62.227981  10.179338  3.374263
  11874.688  11874.700  0.500  1.769287  62.223270  10.606235  3.580229
  11874.994  11875.000  0.500  1.679788  62.216008  11.597907  3.987878
  11875.283  11875.300  0.500  1.577262  62.208959  12.848632  4.481395
  11875.590  11875.600  0.500  1.462871  62.204850  14.404809  5.092237
  11875.890  11875.900  0.500  1.356242  62.191219  16.022144  5.731167
  11876.191  11876.200  0.500  1.264960  62.189483  17.553015  6.347868
  11876.504  11876.500  0.500  1.187748  62.187674  18.961462  6.939680
  11876.805  11876.800  0.500  1.131130  62.179784  20.063453  7.433954
  11877.112  11877.100  0.500  1.087701  62.177856  20.953340  7.874442
  11877.413  11877.400  0.500  1.060859  62.176742  21.522998  8.203738
  11877.707  11877.700  0.500  1.044610  62.173192  21.874325  8.469268
  11878.008  11878.000  0.500  1.037055  62.163270  22.036709  8.676498
  11878.303  11878.300  0.500  1.036638  62.163359  22.045928  8.819993
  11878.616  11878.600  0.500  1.041008  62.152139  21.945832  8.920529
  11878.886  11878.900  0.500  1.047877  62.151151  21.795253  8.979628
  11879.212  11879.200  0.500  1.057239  62.148135  21.591110  9.015299
  11879.494  11879.500  0.500  1.066059  62.143580  21.399955  9.026353
  11879.783  11879.800  0.500  1.075047  62.141510  21.207763  9.023713
  11880.102  11880.100  0.500  1.083808  62.138759  21.021845  9.004807
  11880.391  11880.400  0.500  1.091984  62.132675  20.848616  8.967648
  11880.698  11880.700  0.500  1.100420  62.128607  20.672135  8.908366
  11880.981  11881.000  0.500  1.109441  62.123589  20.484834  8.824077
  11881.300  11881.300  0.500  1.120998  62.119033  20.247962  8.694506
  11881.583  11881.600  0.500  1.132512  62.105572  20.011835  8.550499
  11881.902  11881.900  0.500  1.147223  62.109137  19.720730  8.360282
  11882.197  11882.200  0.500  1.162962  62.103268  19.410937  8.156599
  11882.504  11882.500  0.500  1.180626  62.092715  19.067832  7.929858
  11882.806  11882.800  0.500  1.198490  62.087755  18.728725  7.711794
  11883.100  11883.100  0.500  1.215401  62.089278  18.415121  7.514171
  11883.414  11883.400  0.500  1.231357  62.069139  18.117745  7.338067
  11883.709  11883.700  0.500  1.244033  62.048293  17.883527  7.205777
  11884.016  11884.000  0.500  1.254039  62.006028  17.693422  7.105824
  11884.293  11884.300  0.500  1.259758  61.900580  17.562593  7.045695
  11884.619  11884.600  0.500  1.261966  61.758616  17.483665  7.024333
  11884.895  11884.900  0.500  1.259816  61.594399  17.474715  7.039822
  11885.203  11885.200  0.500  1.253658  61.453346  17.542397  7.092226
  11885.491  11885.500  0.500  1.245414  61.384882  17.667911  7.173147
  11885.799  11885.800  0.500  1.234006  61.374917  17.867716  7.288393
  11886.082  11886.100  0.500  1.221509  61.402308  18.100481  7.414922
  11886.383  11886.400  0.500  1.207510  61.484515  18.380218  7.556315
  11886.697  11886.700  0.500  1.192074  61.570813  18.692350  7.709360
  11886.998  11887.000  0.500  1.177325  61.709680  19.012868  7.863611
  11887.299  11887.300  0.500  1.162176  61.802363  19.332076  8.011682
  11887.600  11887.600  0.500  1.147700  61.880710  19.638826  8.155533
  11887.896  11887.900  0.500  1.132584  61.927262  19.952948  8.299560
  11888.197  11888.200  0.500  1.118260  61.945154  20.246655  8.433530
  11888.498  11888.500  0.500  1.104961  61.963945  20.523936  8.562618
  11888.800  11888.800  0.500  1.092085  61.960967  20.788914  8.686323
  11889.101  11889.100  0.500  1.079272  61.965117  21.058396  8.816126
  11889.409  11889.400  0.500  1.067362  61.968769  21.311970  8.939900
  11889.716  11889.700  0.500  1.056283  61.967902  21.549079  9.063366
  11889.999  11890.000  0.500  1.045904  61.949131  21.767313  9.182404
  11890.313  11890.300  0.500  1.035520  61.946733  21.993675  9.308583
  11890.615  11890.600  0.500  1.026001  61.947050  22.204135  9.429899
  11890.910  11890.900  0.500  1.017093  61.943535  22.401542  9.545995
  11891.199  11891.200  0.500  1.008603  61.939656  22.591135  9.656286
  11891.513  11891.500  0.500  0.999959  61.929260  22.783437  9.767252
  11891.710  11891.700  0.500  0.994962  61.934485  22.899508  9.834106
  11892.701  11892.690  0.500  0.971968  61.920568  23.426887  10.124249
  11893.692  11893.690  0.500  0.952806  61.898349  23.871561  10.389616
  11894.726  11894.710  0.500  0.935200  61.884822  24.290252  10.700623
  11895.786  11895.760  0.500  0.918139  61.869713  24.702190  11.015619
  11896.851  11896.820  0.500  0.902041  61.854315  25.096823  11.262733
  11897.923  11897.900  0.500  0.886260  61.828055  25.485193  11.453767
  11899.014  11899.000  0.500  0.870996  61.820783  25.874124  11.634416
  11900.117  11900.120  0.500  0.857309  61.766324  26.207586  11.801864
  11901.269  11901.260  0.500  0.845851  61.538241  26.411707  11.918028
  11902.422  11902.410  0.500  0.837157  61.116388  26.459698  11.960500
  11903.606  11903.590  0.500  0.830821  61.381548  26.743406  12.119466
  11904.784  11904.780  0.500  0.827009  61.699505  26.984625  12.272734
  11906.005  11906.000  0.500  0.825236  61.729776  27.045755  12.347315
  11907.239  11907.230  0.500  0.825530  61.725075  27.035747  12.377491
  11908.504  11908.480  0.500  0.827721  61.701551  26.966304  12.375207
  11909.776  11909.750  0.500  0.831818  61.684410  26.848598  12.344880
  11911.060  11911.040  0.500  0.838139  61.661999  26.669725  12.269785
  11912.363  11912.350  0.500  0.846104  61.877976  26.550816  12.181747
  11913.691  11913.680  0.500  0.855763  61.881656  26.297167  12.009329
  11915.044  11915.030  0.500  0.866931  61.830772  25.983731  11.790741
  11916.416  11916.400  0.500  0.879037  61.607329  25.578299  11.539889
  11917.800  11917.780  0.500  0.891408  61.150086  25.076295  11.261145
  11919.185  11919.190  0.500  0.903218  61.547791  24.943062  11.164307
  11920.614  11920.610  0.500  0.915057  61.780253  24.742600  11.052997
  11922.074  11922.050  0.500  0.925901  61.778694  24.475132  10.913470
  11923.540  11923.510  0.500  0.935539  61.760515  24.233229  10.776556
  11925.019  11924.990  0.500  0.943269  61.736060  24.037123  10.648381
  11926.498  11926.490  0.500  0.949503  61.723100  23.882711  10.529027
  11928.015  11928.010  0.500  0.954222  61.704950  23.763297  10.426217
  11929.564  11929.550  0.500  0.957282  61.680926  23.681477  10.346637
  11931.118  11931.110  0.500  0.958958  61.652029  23.630724  10.294939
  11932.705  11932.680  0.500  0.960559  61.635143  23.586468  10.258838
  11934.279  11934.280  0.500  0.961580  61.386789  23.467449  10.192783
  11935.903  11935.890  0.500  0.960079  60.941617  23.332258  10.110673
  11937.553  11937.530  0.500  0.958360  61.460534  23.571427  10.205056
  11939.191  11939.180  0.500  0.956847  61.514639  23.627895  10.229612
  11940.860  11940.850  0.500  0.954517  61.500301  23.677492  10.246659
  11942.542  11942.540  0.500  0.952644  61.487868  23.717089  10.253568
  11944.256  11944.250  0.500  0.950658  61.465438  23.755562  10.254720
  11946.013  11945.980  0.500  0.948643  61.435444  23.791869  10.256928
  11947.734  11947.730  0.500  0.945995  61.415165  23.847069  10.276672
  11949.480  11949.490  0.500  0.943599  61.395234  23.896525  10.302521
  11951.295  11951.280  0.500  0.940631  61.371892  23.958437  10.350977
  11953.092  11953.080  0.500  0.937449  61.348359  24.025594  10.413883
  11954.921  11954.910  0.500  0.933824  61.315404  24.099892  10.475580
  11956.738  11956.750  0.500  0.930075  61.299899  24.184277  10.532271
  11958.611  11958.610  0.500  0.925745  61.267754  24.276506  10.588436
  11960.516  11960.490  0.500  0.921057  61.240429  24.379700  10.648575
  11962.397  11962.390  0.500  0.916570  61.212217  24.478056  10.711902
  11964.309  11964.310  0.500  0.912069  61.193460  24.580950  10.779771
  11966.253  11966.250  0.500  0.907469  61.152342  24.677673  10.840945
  11968.236  11968.210  0.500  0.903405  61.133289  24.770453  10.894477
  11970.175  11970.180  0.500  0.899607  61.104789  24.853125  10.947483
  11972.184  11972.180  0.500  0.896411  61.075110  24.920557  10.994349
  11974.212  11974.190  0.500  0.893844  61.046233  24.972813  11.030009
  11976.247  11976.220  0.500  0.891871  61.016359  25.009894  11.062619
  11978.276  11978.280  0.500  0.890272  60.985509  25.037229  11.088814
  11980.344  11980.350  0.500  0.889236  60.955153  25.050705  11.111110
  11982.437  11982.440  0.500  0.888832  60.925073  25.048472  11.130468
  11984.512  11984.550  0.500  0.888674  60.895712  25.040357  11.149429
  11986.645  11986.680  0.500  0.888768  60.861863  25.024073  11.165395
  11988.815  11988.820  0.500  0.889216  60.831759  25.000504  11.173955
  11991.049  11990.990  0.500  0.889694  60.796857  24.974228  11.173352
  11993.140  11993.180  0.500  0.890386  60.755837  24.940113  11.168770
  11995.338  11995.380  0.500  0.891410  60.728167  24.903239  11.155279
  11997.838  11997.600  0.500  0.892592  60.686123  24.856586  11.139963
  11999.806  11999.850  0.500  0.893398  60.652283  24.822716  11.121509
  12002.138  12002.110  0.500  0.894672  60.632737  24.783132  11.097404
  12004.390  12004.390  0.500  0.895949  60.604815  24.740105  11.065712
  12006.667  12006.690  0.500  0.897122  60.569667  24.696756  11.031990
  12008.983  12009.010  0.500  0.898281  60.537395  24.655006  10.996440
  12011.351  12011.350  0.500  0.899643  60.517946  24.613546  10.959121
  12013.700  12013.700  0.500  0.900392  60.482109  24.580559  10.928741
  12016.088  12016.080  0.500  0.901423  60.456091  24.544665  10.897088
  12018.465  12018.470  0.500  0.902070  60.421801  24.514867  10.873716
  12020.873  12020.890  0.500  0.902528  60.393176  24.492027  10.854035
  12023.315  12023.320  0.500  0.902806  60.359094  24.471423  10.836265
  12025.776  12025.770  0.500  0.902631  60.323985  24.461456  10.823898
  12028.263  12028.250  0.500  0.902191  60.288270  24.457725  10.816648
  12030.733  12030.740  0.500  0.901696  60.259843  24.458298  10.812911
  12033.228  12033.250  0.500  0.900732  60.222906  24.466898  10.813693
  12035.788  12035.770  0.500  0.899720  60.192770  24.479415  10.814126
  12038.330  12038.320  0.500  0.898910  60.152045  24.482662  10.817896
  12040.898  12040.890  0.500  0.897509  60.116804  24.502626  10.833506
  12043.462  12043.470  0.500  0.895661  60.074926  24.530854  10.850889
  12046.083  12046.080  0.500  0.893844  59.914968  24.510039  10.855710
  12048.699  12048.700  0.500  0.891837  58.295776  23.895558  10.594897
  12051.366  12051.350  0.500  0.889699  59.854939  24.587173  10.914501
  12054.010  12054.010  0.500  0.887269  59.900699  24.665847  10.963633
  12056.680  12056.690  0.500  0.884858  59.879798  24.716761  10.998264
  12059.396  12059.390  0.500  0.882434  59.852869  24.765583  11.032028
  12062.113  12062.110  0.500  0.879994  59.804444  24.806008  11.059886
  12064.856  12064.850  0.500  0.877859  59.780835  24.849211  11.087209
  12067.594  12067.600  0.500  0.875740  59.742288  24.885867  11.106864
  12070.385  12070.380  0.500  0.873605  59.700540  24.921640  11.126252
  12073.176  12073.170  0.500  0.872026  59.669378  24.947971  11.141222
  12076.001  12075.990  0.500  0.870274  59.618159  24.970265  11.154399
  12078.821  12078.820  0.500  0.869059  59.585961  24.987142  11.170979
  12081.674  12081.670  0.500  0.867670  59.542101  25.003437  11.185045
  12084.553  12084.550  0.500  0.866743  59.503505  25.010404  11.197940
  12087.453  12087.440  0.500  0.865870  59.466467  25.016665  11.209324
  12090.361  12090.350  0.500  0.865132  59.413300  25.012749  11.216224
  12093.271  12093.270  0.500  0.864496  59.250962  24.960276  11.198827
  12096.219  12096.220  0.500  0.864177  59.362296  25.015171  11.230721
  12099.208  12099.190  0.500  0.863893  59.316685  25.003037  11.228912
  12102.173  12102.170  0.500  0.863919  59.282211  24.987852  11.228144
  12105.171  12105.180  0.500  0.863463  59.240111  24.981508  11.227784
  12108.196  12108.200  0.500  0.863332  59.203891  24.969503  11.234221
  12111.248  12111.250  0.500  0.862986  59.156702  24.958246  11.238360
  12114.314  12114.310  0.500  0.863047  59.123630  24.942757  11.242434
  12117.389  12117.390  0.500  0.862553  59.075361  24.934726  11.246867
  12120.503  12120.490  0.500  0.862280  59.038364  24.925905  11.253820
  12123.606  12123.610  0.500  0.861842  58.993309  24.917784  11.253847
  12126.743  12126.750  0.500  0.861559  58.941795  24.903073  11.253089
  12129.920  12129.900  0.500  0.861079  58.693242  24.809974  11.212337
  12133.086  12133.080  0.500  0.860448  58.885406  24.906920  11.259125
  12136.266  12136.270  0.500  0.859727  58.841529  24.906291  11.256497
  12139.512  12139.490  0.500  0.858961  58.797666  24.906801  11.255515
  12142.728  12142.720  0.500  0.857924  58.758271  24.915947  11.253945
  12145.984  12145.970  0.500  0.856919  58.710390  24.920663  11.249369
  12149.249  12149.250  0.500  0.855860  58.665242  24.927884  11.246053
  12152.560  12152.540  0.500  0.854613  58.617597  24.938721  11.244413
  12155.853  12155.850  0.500  0.853193  58.569604  24.953710  11.245248
  12159.168  12159.170  0.500  0.851719  58.517331  24.968223  11.249080
  12162.523  12162.520  0.500  0.850181  58.295226  24.911729  11.227326
  12165.900  12165.890  0.500  0.848651  58.437845  25.010925  11.275874
  12169.285  12169.270  0.500  0.846815  58.389638  25.036224  11.295838
  12172.697  12172.680  0.500  0.845117  58.338280  25.056706  11.317387
  12176.105  12176.100  0.500  0.843284  58.291302  25.082467  11.340297
  12179.573  12179.550  0.500  0.841656  58.251150  25.106028  11.366490
  12183.050  12183.010  0.500  0.839802  58.200405  25.130714  11.391548
  12186.483  12186.490  0.500  0.838090  58.152549  25.153073  11.415934
  12190.015  12189.990  0.500  0.836336  58.105643  25.176896  11.440198
  12193.543  12193.510  0.500  0.834690  58.064704  25.200602  11.461375
  12197.060  12197.050  0.500  0.833015  58.010583  25.219327  11.479488
  12200.612  12200.600  0.500  0.831624  57.843891  25.181853  11.472600
  12204.204  12204.180  0.500  0.829843  57.922152  25.260868  11.513510
  12207.792  12207.780  0.500  0.828377  57.883993  25.281279  11.525436
  12211.422  12211.390  0.500  0.827031  57.839269  25.295770  11.535443
  12215.047  12215.020  0.500  0.825711  57.787968  25.306717  11.543584
  12218.693  12218.680  0.500  0.824355  57.740838  25.320389  11.549243
  12222.368  12222.350  0.500  0.823210  57.699028  25.331044  11.556002
  12226.045  12226.040  0.500  0.822264  57.659730  25.337737  11.560963
  12229.757  12229.750  0.500  0.820992  57.602341  25.344738  11.567784
  12233.504  12233.480  0.500  0.820009  57.469976  25.311379  11.558802
  12237.240  12237.220  0.500  0.819164  56.684317  24.986457  11.411071
  12241.024  12240.990  0.500  0.818114  57.400818  25.328851  11.581150
  12244.810  12244.780  0.500  0.817247  57.382115  25.342577  11.594679
  12248.599  12248.580  0.500  0.816279  57.333042  25.345418  11.609640
  12252.443  12252.410  0.500  0.815491  57.289750  25.346240  11.623285
  12256.282  12256.250  0.500  0.814529  57.103347  25.288099  11.609250
  12260.124  12260.110  0.500  0.813493  57.173123  25.345251  11.649033
  12264.027  12263.990  0.500  0.812343  56.196734  24.941061  11.477828
  12267.900  12267.890  0.500  0.811450  56.987588  25.314666  11.654844
  12271.828  12271.810  0.500  0.810205  56.894333  25.304714  11.657707
  12275.765  12275.750  0.500  0.809004  56.984087  25.375090  11.696695
  12279.712  12279.710  0.500  0.807883  56.925708  25.377520  11.704499
  12283.700  12283.680  0.500  0.806591  56.759010  25.335925  11.688724
  12287.684  12287.680  0.500  0.805129  56.782572  25.383525  11.708708
  12291.717  12291.690  0.500  0.804179  55.421777  24.798748  11.440757
  12295.746  12295.730  0.500  0.802496  56.653860  25.392766  11.716940
  12299.784  12299.780  0.500  0.801040  56.472512  25.348348  11.694913
  12303.872  12303.850  0.500  0.799639  56.593376  25.438223  11.737083
  12307.942  12307.940  0.500  0.798040  56.539728  25.454784  11.746549
  12312.061  12312.050  0.500  0.796275  56.483381  25.474335  11.756482
  12316.222  12316.180  0.500  0.794707  56.428095  25.489341  11.769184
  12320.334  12320.330  0.500  0.793152  55.646998  25.175623  11.631798
  12324.507  12324.490  0.500  0.791609  56.199860  25.465012  11.768786
  12328.697  12328.680  0.500  0.789784  56.233814  25.526939  11.806409
  12332.897  12332.880  0.500  0.788400  56.196990  25.545563  11.823891
  12337.152  12337.110  0.500  0.786644  56.144341  25.566473  11.845289
  12341.364  12341.350  0.500  0.784960  56.092961  25.586135  11.865817
  12345.625  12345.610  0.500  0.783239  56.033635  25.603087  11.883843
  12349.910  12349.890  0.500  0.781751  55.848443  25.556479  11.875336
  12354.203  12354.190  0.500  0.780244  55.936075  25.635168  11.923382
  12358.527  12358.510  0.500  0.778642  55.801091  25.614305  11.922836
  12362.867  12362.850  0.500  0.777253  55.817615  25.657505  11.953633
  12367.223  12367.210  0.500  0.775607  55.770481  25.678085  11.969799
  12371.616  12371.590  0.500  0.774194  55.707353  25.685271  11.982356
  12375.992  12375.980  0.500  0.772802  55.659175  25.698828  11.991833
  12380.438  12380.400  0.500  0.771287  55.596882  25.708962  12.002777
  12384.826  12384.830  0.500  0.770123  55.143094  25.528823  11.923552
  12389.319  12389.280  0.500  0.768835  55.511335  25.732430  12.023403
  12393.761  12393.750  0.500  0.767553  55.448096  25.736104  12.029459
  12398.253  12398.240  0.500  0.766145  55.391868  25.746215  12.037675
  12402.789  12402.750  0.500  0.764895  55.326649  25.748063  12.044325
  12407.288  12407.280  0.500  0.763738  55.276349  25.754441  12.057228
  12411.857  12411.830  0.500  0.762321  55.209679  25.759852  12.064182
  12416.403  12416.400  0.500  0.761124  55.141441  25.758828  12.072768
  12421.019  12420.980  0.500  0.759721  55.096693  25.774057  12.087038
  12425.619  12425.590  0.500  0.758421  55.035349  25.778848  12.101674
  12430.216  12430.210  0.500  0.757093  54.944868  25.770667  12.109868
  12434.903  12434.860  0.500  0.755789  54.847118  25.758408  12.114142
  12439.527  12439.520  0.500  0.754473  54.828396  25.783501  12.135597
  12444.235  12444.200  0.500  0.753074  55.014286  25.907142  12.203227
  12448.926  12448.900  0.500  0.751604  54.953035  25.916368  12.219467
  12453.649  12453.620  0.500  0.750044  54.757080  25.864267  12.201424
  12458.388  12458.360  0.500  0.748734  54.837030  25.936002  12.245551
  12463.144  12463.110  0.500  0.747182  54.771031  25.945006  12.255078
  12467.925  12467.890  0.500  0.745685  54.693761  25.947229  12.262513
  12472.695  12472.690  0.500  0.744167  54.650269  25.965982  12.276344
  12477.537  12477.500  0.500  0.742606  54.581154  25.973654  12.285241
  12482.356  12482.330  0.500  0.740916  54.504239  25.980933  12.292429
  12487.226  12487.190  0.500  0.739516  54.241564  25.891942  12.254773
  12492.073  12492.060  0.500  0.737821  54.422104  26.022184  12.320266
  12496.985  12496.950  0.500  0.736154  54.355045  26.033480  12.330816
  12501.901  12501.860  0.500  0.734589  54.290245  26.043169  12.339866
  12506.800  12506.790  0.500  0.733017  54.225146  26.052873  12.351910
  12511.757  12511.730  0.500  0.731463  54.163392  26.063670  12.364032
  12516.726  12516.700  0.500  0.729859  54.102573  26.076200  12.378864
  12521.719  12521.690  0.500  0.728158  54.036533  26.088708  12.392082
  12526.723  12526.690  0.500  0.726570  53.972510  26.099214  12.408991
  12531.738  12531.720  0.500  0.724916  53.907373  26.110861  12.423174
  12536.791  12536.760  0.500  0.723430  53.836188  26.115145  12.435582
  12541.868  12541.820  0.500  0.721900  53.525421  26.004172  12.392229
  12546.923  12546.900  0.500  0.720497  53.736686  26.143443  12.472950
  12552.030  12552.000  0.500  0.718860  53.666153  26.151912  12.485496
  12557.154  12557.120  0.500  0.717477  53.603264  26.157433  12.495785
  12562.297  12562.260  0.500  0.715864  53.539128  26.168298  12.510872
  12567.437  12567.420  0.500  0.714527  53.479372  26.174061  12.522228
  12572.636  12572.600  0.500  0.713108  53.412652  26.178539  12.534589
  12577.826  12577.790  0.500  0.711710  53.332581  26.175860  12.540433
  12583.041  12583.010  0.500  0.710218  53.282643  26.190405  12.554435
  12588.268  12588.240  0.500  0.708975  53.219279  26.191794  12.561227
  12593.519  12593.490  0.500  0.707332  53.152717  26.202027  12.574011
  12598.803  12598.760  0.500  0.705941  53.087399  26.206275  12.582677
  12604.070  12604.050  0.500  0.704503  53.024431  26.212862  12.591267
  12609.383  12609.360  0.500  0.703075  52.956669  26.216753  12.602964
  12614.736  12614.690  0.500  0.701513  52.890394  26.224880  12.614493
  12620.065  12620.040  0.500  0.700034  52.821144  26.229318  12.626740
  12625.469  12625.410  0.500  0.698548  52.752548  26.234203  12.634923
  12630.828  12630.790  0.500  0.697140  52.698546  26.244279  12.649284
  12636.234  12636.200  0.500  0.695590  52.614371  26.243010  12.659504
  12641.658  12641.620  0.500  0.693971  52.519494  26.238128  12.666225
  12647.108  12647.070  0.500  0.692273  52.507820  26.276883  12.692982
  12652.584  12652.530  0.500  0.690693  52.440648  26.284747  12.706259
  12658.044  12658.010  0.500  0.689346  52.374308  26.286896  12.718309
  12663.557  12663.510  0.500  0.687689  52.310975  26.298650  12.733250
  12669.061  12669.030  0.500  0.685986  52.241767  26.308610  12.745050
  12674.612  12674.570  0.500  0.684574  52.174572  26.311902  12.757971
  12680.140  12680.120  0.500  0.682959  52.109185  26.321396  12.770169
  12685.757  12685.700  0.500  0.681353  52.037744  26.327550  12.780583
  12691.330  12691.300  0.500  0.679816  51.966534  26.331961  12.791961
  12696.978  12696.910  0.500  0.678181  51.901262  26.341926  12.801659
  12702.603  12702.550  0.500  0.676600  51.831468  26.348126  12.813707
  12708.233  12708.200  0.500  0.674992  51.764964  26.356674  12.823589
  12713.925  12713.870  0.500  0.673298  51.692415  26.364354  12.836349
  12719.586  12719.560  0.500  0.671684  51.625599  26.372825  12.846921
