# XDI/1.0 BlueSky/1.10.0 BMM/2023-1.0-py310-tiled
# Beamline.name: BMM (06BM) -- Beamline for Materials Measurement (NIST)
# Beamline.xray_source: NSLS-II three-pole wiggler
# Beamline.collimation: paraboloid mirror, 5 nm Rh on 30 nm Pt
# Beamline.focusing: not in use
# Beamline.harmonic_rejection: flat mirror, Pt stripe, pitch = 7.0 mrad relative to beam
# Beamline.software: Bluesky 1.10.0, Ophyd 1.7.0, DataBroker 2.0.0b13, Python 3.10.8, 2023-1.0-py310-tiled
# Detector.I0: 10 cm N2
# Detector.I1: 25 cm N2
# Detector.I2: 25 cm N2
# Element.symbol: Pb
# Element.edge: L3
# Element.reference: Pb
# Element.reference_material: Pb foil
# Facility.name: NSLS-II
# Facility.energy: 3.0
# Facility.current: 400.9
# Facility.mode: top-off
# Facility.GUP: 301027
# Facility.SAF: 310583
# Facility.cycle: 2023-2
# Mono.name: Si(111)
# Mono.d_spacing: 3.1351860
# Mono.encoder_resolution: 0.0000050 deg/ct
# Mono.angle_offset: 16.0754326 deg
# Mono.scan_mode: pseudo channel cut
# Mono.scan_type: step
# Mono.direction: forward in energy
# Sample.name: PbSO4
# Sample.prep: powder on tape
# Sample.x: 143.785 mm
# Sample.y: 114.695 mm
# Sample.SDD_position: 205.000 mm
# Scan.experimenters: Bruce Ravel
# Scan.edge_energy: 13035.2
# Scan.start_time: 2023-06-23T17:07:19
# Scan.end_time: 2023-06-23T17:15:15
# Scan.transient_id: 84887
# Scan.uid: fadb15ae-21f6-4401-a3e6-e6eb289fed29
# Scan.plot_hint: ln(I0/It)  --  ln($5/$6)
# Column.1: energy eV
# Column.2: requested_energy eV
# Column.3: measurement_time seconds
# Column.4: xmu 
# Column.5: I0 nA
# Column.6: It nA
# Column.7: Ir nA
# ///////////
# BMM standards collection
# -----------
# energy  requested_energy  measurement_time  xmu  I0  It  Ir
  12835.154  12835.200  0.500  -0.056743  50.154528  53.082763  23.785248
  12845.205  12845.200  0.500  -0.058219  50.048828  53.049134  23.811042
  12855.222  12855.200  0.500  -0.059546  49.920871  52.983763  23.821795
  12865.203  12865.200  0.500  -0.060911  49.818080  52.946872  23.844586
  12875.244  12875.200  0.500  -0.062228  49.648534  52.836222  23.834427
  12885.243  12885.200  0.500  -0.063638  49.584447  52.842471  23.877613
  12895.251  12895.200  0.500  -0.064905  49.463667  52.780578  23.886082
  12905.296  12905.200  0.500  -0.066145  49.345106  52.719414  23.896588
  12915.233  12915.200  0.500  -0.067456  48.736813  52.137836  23.668189
  12925.236  12925.200  0.500  -0.068769  49.089723  52.584341  23.911861
  12935.299  12935.200  0.500  -0.070074  48.991517  52.547712  23.927525
  12945.217  12945.200  0.500  -0.071268  48.846294  52.454541  23.916047
  12955.224  12955.200  0.500  -0.072575  48.519291  52.171517  23.818373
  12965.254  12965.200  0.500  -0.073657  48.654030  52.373006  23.937656
  12975.241  12975.200  0.500  -0.074631  48.499637  52.257717  23.902316
  12985.250  12985.200  0.500  -0.075545  48.419242  52.218769  23.892820
  12995.246  12995.200  0.500  -0.076097  48.297680  52.116458  23.840168
  13005.243  13005.200  0.500  -0.076298  48.195594  52.016745  23.754990
  13007.183  13007.200  0.500  -0.076218  48.167453  51.982233  23.726684
  13009.176  13009.200  0.500  -0.076121  48.144987  51.952919  23.696065
  13011.177  13011.200  0.500  -0.075994  48.121161  51.920607  23.655544
  13013.186  13013.200  0.500  -0.075774  48.095773  51.881804  23.612969
  13015.181  13015.200  0.500  -0.075495  48.069920  51.839440  23.560314
  13017.184  13017.200  0.500  -0.075178  48.049090  51.800573  23.499618
  13019.180  13019.200  0.500  -0.074602  48.029452  51.749598  23.423573
  13021.199  13021.200  0.500  -0.074064  48.003145  51.693406  23.334157
  13023.211  13023.200  0.500  -0.073271  47.981215  51.628828  23.222131
  13025.164  13025.200  0.500  -0.072246  47.957709  51.550664  23.075058
  13025.438  13025.500  0.500  -0.072021  47.951665  51.532595  23.048549
  13025.742  13025.800  0.500  -0.071841  47.946993  51.518302  23.022904
  13026.052  13026.100  0.500  -0.071572  47.944949  51.502243  22.992241
  13026.341  13026.400  0.500  -0.071429  47.938119  51.487530  22.961640
  13026.652  13026.700  0.500  -0.071164  47.936449  51.472121  22.926689
  13026.941  13027.000  0.500  -0.071030  47.925897  51.453866  22.897861
  13027.252  13027.300  0.500  -0.070825  47.922671  51.439861  22.864824
  13027.570  13027.600  0.500  -0.070399  47.921844  51.417094  22.822006
  13027.866  13027.900  0.500  -0.070242  47.916758  51.403574  22.788518
  13028.177  13028.200  0.500  -0.069943  47.911496  51.382554  22.746040
  13028.466  13028.500  0.500  -0.069607  47.905480  51.358831  22.705512
  13028.777  13028.800  0.500  -0.069354  47.898113  51.337948  22.659258
  13029.088  13029.100  0.500  -0.069029  47.898185  51.321332  22.609912
  13029.369  13029.400  0.500  -0.068748  47.893059  51.301420  22.565410
  13029.680  13029.700  0.500  -0.068343  47.890453  51.277880  22.509679
  13029.984  13030.000  0.500  -0.068113  47.877476  51.252202  22.454514
  13030.273  13030.300  0.500  -0.067602  47.881568  51.230364  22.395204
  13030.591  13030.600  0.500  -0.067285  47.876361  51.208544  22.325742
  13030.873  13030.900  0.500  -0.066860  47.866869  51.176670  22.259242
  13031.184  13031.200  0.500  -0.066361  47.865871  51.150062  22.181802
  13031.473  13031.500  0.500  -0.065891  47.859584  51.119298  22.102439
  13031.777  13031.800  0.500  -0.065407  47.858828  51.093788  22.019994
  13032.080  13032.100  0.500  -0.064822  47.856372  51.061270  21.925688
  13032.369  13032.400  0.500  -0.064306  47.851583  51.029810  21.828811
  13032.666  13032.700  0.500  -0.063787  47.844866  50.996166  21.718888
  13032.962  13033.000  0.500  -0.063187  47.839571  50.959939  21.606784
  13033.266  13033.300  0.500  -0.062575  47.836692  50.925702  21.476365
  13033.570  13033.600  0.500  -0.061898  47.830177  50.884338  21.342132
  13033.874  13033.900  0.500  -0.061036  47.828346  50.838520  21.199377
  13034.185  13034.200  0.500  -0.060175  47.821534  50.787553  21.038955
  13034.474  13034.500  0.500  -0.059441  47.818947  50.747518  20.885290
  13034.785  13034.800  0.500  -0.058352  47.818023  50.691294  20.704723
  13035.074  13035.100  0.500  -0.057582  47.811903  50.645793  20.538408
  13035.393  13035.400  0.500  -0.056560  47.807512  50.589460  20.345164
  13035.689  13035.700  0.500  -0.055483  47.806092  50.533466  20.160808
  13035.993  13036.000  0.500  -0.054353  47.800364  50.470351  19.956396
  13036.297  13036.300  0.500  -0.053077  47.795831  50.401209  19.757094
  13036.594  13036.600  0.500  -0.051829  47.794107  50.336553  19.554431
  13036.898  13036.900  0.500  -0.050563  47.785201  50.263476  19.349073
  13037.194  13037.200  0.500  -0.049049  47.781725  50.183782  19.134787
  13037.498  13037.500  0.500  -0.047380  47.781306  50.099659  18.919006
  13037.802  13037.800  0.500  -0.045692  47.774113  50.007654  18.706380
  13038.092  13038.100  0.500  -0.043829  47.769970  49.910216  18.493937
  13038.411  13038.400  0.500  -0.041895  47.765721  49.809358  18.269559
  13038.700  13038.700  0.500  -0.039874  47.762746  49.705706  18.050640
  13038.996  13039.000  0.500  -0.037676  47.755611  49.589171  17.827259
  13039.278  13039.300  0.500  -0.035278  47.753559  49.468286  17.605562
  13039.582  13039.600  0.500  -0.032615  47.745525  49.328440  17.348611
  13039.879  13039.900  0.500  -0.029815  47.743867  49.188798  17.112388
  13040.191  13040.200  0.500  -0.026556  47.741356  49.026146  16.844497
  13040.487  13040.500  0.500  -0.023403  47.734985  48.865314  16.586500
  13040.792  13040.800  0.500  -0.019647  47.728010  48.674989  16.292483
  13041.096  13041.100  0.500  -0.015674  47.728014  48.482017  16.013321
  13041.392  13041.400  0.500  -0.011436  47.723357  48.272236  15.718353
  13041.704  13041.700  0.500  -0.006488  47.724250  48.034876  15.401135
  13041.993  13042.000  0.500  -0.001415  47.717521  47.785083  15.098804
  13042.298  13042.300  0.500  0.004239  47.712471  47.510661  14.781441
  13042.595  13042.600  0.500  0.010265  47.710920  47.223670  14.466247
  13042.914  13042.900  0.500  0.017166  47.704713  46.892804  14.139929
  13043.196  13043.200  0.500  0.024013  47.701403  46.569609  13.838601
  13043.515  13043.500  0.500  0.031861  47.698255  46.202484  13.519148
  13043.812  13043.800  0.500  0.040468  47.692821  45.801318  13.198207
  13044.094  13044.100  0.500  0.048666  47.685970  45.420869  12.913572
  13044.398  13044.400  0.500  0.058240  47.681928  44.984268  12.609614
  13044.680  13044.700  0.500  0.067571  47.679375  44.564066  12.330733
  13044.992  13045.000  0.500  0.077690  47.676289  44.112532  12.047489
  13045.296  13045.300  0.500  0.087850  47.667259  43.658357  11.775407
  13045.578  13045.600  0.500  0.098040  47.665581  43.214206  11.522334
  13045.898  13045.900  0.500  0.109405  47.660158  42.721014  11.249613
  13046.187  13046.200  0.500  0.119522  47.658735  42.289729  11.020180
  13046.499  13046.500  0.500  0.130436  47.649602  41.822658  10.779394
  13046.796  13046.800  0.500  0.140373  47.644164  41.404380  10.570408
  13047.086  13047.100  0.500  0.150512  47.634960  40.978808  10.365719
  13047.412  13047.400  0.500  0.160645  47.625665  40.557755  10.166901
  13047.695  13047.700  0.500  0.169319  47.603349  40.188636  10.000492
  13048.007  13048.000  0.500  0.178226  47.587321  39.818848  9.836166
  13048.311  13048.300  0.500  0.186042  47.568174  39.492926  9.699281
  13048.616  13048.600  0.500  0.192970  47.555847  39.210114  9.581664
  13048.920  13048.900  0.500  0.199447  47.540452  38.944345  9.472729
  13049.210  13049.200  0.500  0.204975  47.535733  38.725809  9.388377
  13049.514  13049.500  0.500  0.209925  47.528830  38.529014  9.314144
  13049.797  13049.800  0.500  0.213983  47.534590  38.377637  9.260189
  13050.109  13050.100  0.500  0.217557  47.539261  38.244469  9.212781
  13050.391  13050.400  0.500  0.220205  47.550829  38.152612  9.183213
  13050.703  13050.700  0.500  0.222685  47.564388  38.068955  9.158710
  13050.978  13051.000  0.500  0.224203  47.565157  38.011842  9.144641
  13051.298  13051.300  0.500  0.225722  47.570865  37.958688  9.132391
  13051.587  13051.600  0.500  0.226463  47.567665  37.928010  9.129402
  13051.892  13051.900  0.500  0.226949  47.567292  37.909303  9.128921
  13052.175  13052.200  0.500  0.227105  47.566145  37.902474  9.131644
  13052.494  13052.500  0.500  0.227246  47.562727  37.894401  9.137516
  13052.791  13052.800  0.500  0.227034  47.557387  37.898169  9.143846
  13053.096  13053.100  0.500  0.226706  47.553818  37.907760  9.151788
  13053.401  13053.400  0.500  0.226286  47.549894  37.920557  9.158180
  13053.706  13053.700  0.500  0.225731  47.543922  37.936858  9.165134
  13054.003  13054.000  0.500  0.225306  47.544735  37.953619  9.170023
  13054.293  13054.300  0.500  0.224777  47.541202  37.970898  9.172347
  13054.613  13054.600  0.500  0.224204  47.535087  37.987746  9.176189
  13054.903  13054.900  0.500  0.223344  47.527619  38.014475  9.176001
  13055.215  13055.200  0.500  0.222634  47.526996  38.040987  9.175546
  13055.505  13055.500  0.500  0.221770  47.519499  38.067864  9.173076
  13055.832  13055.800  0.500  0.220672  47.514165  38.105412  9.169507
  13056.107  13056.100  0.500  0.219747  47.511669  38.138672  9.165162
  13056.397  13056.400  0.500  0.218355  47.506062  38.187274  9.160100
  13056.695  13056.700  0.500  0.216981  47.499088  38.234153  9.154676
  13057.000  13057.000  0.500  0.215404  47.505356  38.299563  9.147968
  13057.297  13057.300  0.500  0.213687  47.564883  38.413456  9.154203
  13057.587  13057.600  0.500  0.211629  47.564688  38.492422  9.144047
  13057.877  13057.900  0.500  0.209662  47.558620  38.563301  9.130830
  13058.182  13058.200  0.500  0.207500  47.553970  38.642987  9.118313
  13058.480  13058.500  0.500  0.205275  47.547524  38.723815  9.102353
  13058.800  13058.800  0.500  0.202909  47.543085  38.811906  9.086422
  13059.090  13059.100  0.500  0.200645  47.543069  38.899865  9.068190
  13059.395  13059.400  0.500  0.198138  47.537011  38.992551  9.046266
  13059.700  13059.700  0.500  0.195899  47.536686  39.079675  9.026041
  13060.005  13060.000  0.500  0.193617  47.527232  39.161193  9.001038
  13060.213  13060.200  0.500  0.192053  47.524536  39.220244  8.986044
  13061.218  13061.190  0.500  0.185979  47.506953  39.444581  8.911243
  13062.215  13062.190  0.500  0.181798  47.497506  39.601989  8.846148
  13063.243  13063.210  0.500  0.180127  47.489920  39.661889  8.803364
  13064.255  13064.260  0.500  0.180249  47.468785  39.639373  8.785313
  13065.320  13065.320  0.500  0.182229  47.462902  39.556096  8.784325
  13066.430  13066.400  0.500  0.184782  47.446557  39.441634  8.795549
  13067.510  13067.500  0.500  0.187790  47.436295  39.314661  8.817534
  13068.642  13068.620  0.500  0.190266  47.421539  39.205253  8.843727
  13069.790  13069.760  0.500  0.192160  47.405369  39.117715  8.865503
  13070.923  13070.910  0.500  0.193144  47.357829  39.040066  8.871793
  13072.108  13072.090  0.500  0.193515  47.306930  38.983618  8.864912
  13073.286  13073.280  0.500  0.193686  47.311155  38.980430  8.860799
  13074.516  13074.500  0.500  0.194249  47.334190  38.977473  8.853523
  13075.747  13075.730  0.500  0.195767  47.331425  38.916070  8.837310
  13077.022  13076.980  0.500  0.197946  47.301820  38.807094  8.812252
  13078.276  13078.250  0.500  0.200789  47.289432  38.686767  8.781151
  13079.545  13079.540  0.500  0.204284  47.285895  38.548927  8.739496
  13080.851  13080.850  0.500  0.207721  47.272567  38.405821  8.686365
  13082.217  13082.180  0.500  0.211019  47.251908  38.262658  8.622811
  13083.561  13083.530  0.500  0.213356  47.237513  38.161701  8.560879
  13084.928  13084.900  0.500  0.214438  47.224579  38.109981  8.505447
  13086.295  13086.280  0.500  0.214257  47.208678  38.104074  8.467493
  13087.685  13087.690  0.500  0.213135  47.187130  38.129409  8.443111
  13089.112  13089.110  0.500  0.211387  47.171338  38.183365  8.442271
  13090.570  13090.550  0.500  0.209259  47.155315  38.251702  8.464181
  13092.043  13092.010  0.500  0.207107  47.113461  38.300055  8.494622
  13093.509  13093.490  0.500  0.205273  47.050451  38.319058  8.527023
  13094.997  13094.990  0.500  0.203850  47.064769  38.385316  8.571302
  13096.539  13096.510  0.500  0.203013  47.081436  38.431045  8.607684
  13098.066  13098.050  0.500  0.202430  47.061934  38.437533  8.630325
  13099.645  13099.610  0.500  0.201953  47.048149  38.444603  8.652007
  13101.172  13101.180  0.500  0.201396  47.023877  38.446175  8.669679
  13102.768  13102.780  0.500  0.200850  46.990080  38.439542  8.685752
  13104.408  13104.390  0.500  0.200097  46.974737  38.455919  8.700410
  13106.072  13106.030  0.500  0.199189  46.914749  38.441709  8.706381
  13107.698  13107.680  0.500  0.197946  46.931405  38.503200  8.719555
  13109.355  13109.350  0.500  0.196779  46.935852  38.551815  8.724105
  13111.027  13111.040  0.500  0.195439  46.913989  38.585518  8.719385
  13112.752  13112.750  0.500  0.194353  46.892320  38.609585  8.710965
  13114.501  13114.480  0.500  0.193441  46.873732  38.629518  8.695237
  13116.234  13116.230  0.500  0.192905  46.837210  38.620116  8.675595
  13117.976  13117.990  0.500  0.192694  46.758395  38.563266  8.652710
  13119.763  13119.780  0.500  0.192658  46.792948  38.593134  8.653892
  13121.603  13121.580  0.500  0.193223  46.789007  38.568081  8.648849
  13123.429  13123.410  0.500  0.193972  46.770262  38.523769  8.648186
  13125.255  13125.250  0.500  0.194895  46.735364  38.459533  8.647837
  13127.104  13127.110  0.500  0.195798  46.715104  38.408144  8.652264
  13128.984  13128.990  0.500  0.196882  46.701116  38.355029  8.657877
  13130.902  13130.890  0.500  0.197961  46.672437  38.290149  8.660332
  13132.813  13132.810  0.500  0.198903  46.629254  38.218726  8.657101
  13134.740  13134.750  0.500  0.199601  46.633324  38.195366  8.658965
  13136.712  13136.710  0.500  0.199698  46.608600  38.171411  8.659747
  13138.723  13138.680  0.500  0.199600  46.587608  38.157966  8.662200
  13140.667  13140.680  0.500  0.199309  46.562517  38.148506  8.664400
  13142.686  13142.690  0.500  0.198527  46.540633  38.160430  8.668468
  13144.691  13144.720  0.500  0.197497  46.512268  38.176444  8.675011
  13146.757  13146.780  0.500  0.196089  46.489578  38.211614  8.684755
  13148.831  13148.850  0.500  0.194736  46.471523  38.248490  8.696571
  13150.914  13150.940  0.500  0.193125  46.436146  38.280993  8.703662
  13153.035  13153.050  0.500  0.192026  46.400923  38.294015  8.710639
  13155.171  13155.180  0.500  0.190999  46.392173  38.326132  8.718693
  13157.497  13157.320  0.500  0.190180  46.354505  38.326383  8.720428
  13159.431  13159.490  0.500  0.189867  46.336316  38.323330  8.721635
  13161.729  13161.680  0.500  0.189706  46.308503  38.306505  8.722347
  13164.012  13163.880  0.500  0.189515  46.273132  38.284536  8.721755
  13166.273  13166.100  0.500  0.189255  46.247315  38.273127  8.725039
  13168.422  13168.350  0.500  0.188954  46.173467  38.223516  8.719628
  13170.601  13170.610  0.500  0.188732  46.188581  38.244527  8.729830
  13172.880  13172.890  0.500  0.188519  46.176831  38.242948  8.733165
  13175.189  13175.190  0.500  0.188329  46.150123  38.228094  8.733325
  13177.508  13177.510  0.500  0.187991  46.118298  38.214634  8.735083
  13179.827  13179.850  0.500  0.187881  46.089831  38.195273  8.734362
  13182.177  13182.200  0.500  0.187748  46.064800  38.179595  8.735561
  13184.581  13184.580  0.500  0.187596  46.032990  38.159031  8.735654
  13186.986  13186.970  0.500  0.187556  46.007195  38.139167  8.736285
  13189.399  13189.390  0.500  0.187205  45.979741  38.129780  8.739203
  13191.821  13191.820  0.500  0.186987  45.951823  38.114945  8.741807
  13194.244  13194.270  0.500  0.186543  45.919816  38.105314  8.748329
  13196.736  13196.750  0.500  0.185999  45.888926  38.100417  8.754100
  13199.259  13199.240  0.500  0.185648  45.864113  38.093162  8.759567
  13201.769  13201.750  0.500  0.185061  45.828340  38.085808  8.764660
  13204.279  13204.270  0.500  0.184664  45.797897  38.075637  8.768824
  13206.805  13206.820  0.500  0.184527  45.776690  38.063192  8.772101
  13209.371  13209.390  0.500  0.184073  45.741632  38.051335  8.774833
  13211.952  13211.970  0.500  0.183654  45.709159  38.040232  8.776961
  13214.588  13214.580  0.500  0.183311  45.675800  38.025536  8.779388
  13217.210  13217.200  0.500  0.182806  45.642377  38.016904  8.781705
  13219.856  13219.850  0.500  0.182254  45.606171  38.007694  8.781392
  13222.503  13222.510  0.500  0.181825  45.577872  38.000441  8.779993
  13225.174  13225.190  0.500  0.181441  45.528083  37.973500  8.777019
  13227.899  13227.890  0.500  0.180988  45.503245  37.969978  8.778933
  13230.610  13230.610  0.500  0.180763  45.486527  37.964547  8.779701
  13233.369  13233.350  0.500  0.180235  45.453454  37.957012  8.780831
  13236.105  13236.100  0.500  0.179808  45.415721  37.941673  8.780555
  13238.866  13238.880  0.500  0.179356  45.374091  37.924036  8.780427
  13241.650  13241.670  0.500  0.178876  45.339899  37.913665  8.783452
  13244.490  13244.490  0.500  0.178454  45.304213  37.899788  8.783815
  13247.330  13247.320  0.500  0.178082  45.266744  37.882552  8.787172
  13250.165  13250.170  0.500  0.177709  45.225296  37.861992  8.787571
  13253.038  13253.050  0.500  0.177464  45.186856  37.839076  8.788590
  13255.929  13255.940  0.500  0.177090  45.140815  37.814659  8.790441
  13258.843  13258.850  0.500  0.176828  45.094101  37.785411  8.790805
  13261.752  13261.770  0.500  0.176532  45.042535  37.753385  8.787524
  13264.715  13264.720  0.500  0.176072  44.977506  37.716217  8.783754
  13267.680  13267.690  0.500  0.175821  44.889418  37.651818  8.774325
  13270.669  13270.670  0.500  0.175395  44.743726  37.545587  8.752523
  13273.690  13273.680  0.500  0.175024  44.445266  37.308991  8.702120
  13276.697  13276.700  0.500  0.174527  44.280104  37.188812  8.679524
  13279.752  13279.750  0.500  0.174169  44.306736  37.224527  8.691981
  13282.793  13282.810  0.500  0.173675  44.270863  37.212773  8.694106
  13285.866  13285.890  0.500  0.173195  44.189320  37.162043  8.686103
  13288.986  13288.990  0.500  0.172588  44.094295  37.104653  8.676543
  13292.108  13292.110  0.500  0.172218  44.058538  37.088288  8.677631
  13295.240  13295.250  0.500  0.171744  44.091348  37.133490  8.693229
  13298.396  13298.400  0.500  0.171273  44.039626  37.107413  8.692031
  13301.584  13301.580  0.500  0.170966  43.968569  37.058928  8.688205
  13304.790  13304.770  0.500  0.170394  43.924484  37.042939  8.690861
  13307.997  13307.990  0.500  0.169976  43.934378  37.066764  8.702961
  13311.221  13311.220  0.500  0.169483  43.913960  37.067823  8.710859
  13314.485  13314.470  0.500  0.169078  43.891128  37.063544  8.716305
  13317.766  13317.750  0.500  0.168553  43.863233  37.059453  8.723522
  13321.041  13321.040  0.500  0.168076  43.815641  37.036910  8.726801
  13324.357  13324.350  0.500  0.167416  43.759095  37.013522  8.726266
  13327.690  13327.670  0.500  0.166905  43.688945  36.973097  8.725830
  13331.032  13331.020  0.500  0.166378  43.648841  36.958612  8.728209
  13334.384  13334.390  0.500  0.165892  43.663013  36.988578  8.742416
  13337.776  13337.770  0.500  0.165221  43.632472  36.987536  8.749639
  13341.201  13341.180  0.500  0.164596  43.608957  36.990693  8.756702
  13344.597  13344.600  0.500  0.164093  43.580751  36.985386  8.760421
  13348.064  13348.050  0.500  0.163568  43.557285  36.984861  8.767816
  13351.534  13351.510  0.500  0.163016  43.532523  36.984267  8.775471
  13355.012  13354.990  0.500  0.162535  43.502830  36.976826  8.780071
  13358.501  13358.490  0.500  0.162042  43.443848  36.944888  8.778414
  13362.038  13362.010  0.500  0.161514  43.419433  36.943621  8.787328
  13365.585  13365.550  0.500  0.161039  43.372730  36.921440  8.789481
  13369.102  13369.100  0.500  0.160528  43.323406  36.898288  8.792857
  13372.684  13372.680  0.500  0.159910  43.281560  36.885429  8.794876
  13376.292  13376.280  0.500  0.159399  43.242419  36.870922  8.800047
  13379.901  13379.890  0.500  0.158736  43.198792  36.858151  8.805065
  13383.512  13383.520  0.500  0.158347  43.172136  36.849724  8.813982
  13387.211  13387.180  0.500  0.157571  43.130011  36.842356  8.819512
  13390.881  13390.850  0.500  0.157015  43.091880  36.830235  8.822299
  13394.569  13394.540  0.500  0.156573  43.058428  36.817940  8.828586
  13398.250  13398.250  0.500  0.155863  43.015331  36.807207  8.834929
  13401.989  13401.980  0.500  0.155431  42.981688  36.794323  8.839971
  13405.730  13405.720  0.500  0.154724  42.928019  36.774366  8.841313
  13409.505  13409.490  0.500  0.154154  43.098968  36.941861  8.890305
  13413.281  13413.280  0.500  0.153498  43.055887  36.929159  8.897205
  13417.107  13417.080  0.500  0.152823  43.023198  36.926034  8.902543
  13420.935  13420.910  0.500  0.152182  42.975981  36.909139  8.907361
  13424.773  13424.750  0.500  0.151640  42.938860  36.897273  8.913220
  13428.645  13428.610  0.500  0.151073  42.834869  36.828787  8.903879
  13432.480  13432.490  0.500  0.150363  42.845094  36.863737  8.921418
  13436.419  13436.390  0.500  0.149772  42.804835  36.850856  8.926128
  13440.329  13440.310  0.500  0.149227  42.760021  36.832358  8.932283
  13444.273  13444.250  0.500  0.148592  42.713471  36.815634  8.936078
  13448.228  13448.210  0.500  0.148038  42.671399  36.799751  8.942624
  13452.216  13452.180  0.500  0.147307  42.631292  36.792058  8.949238
  13456.198  13456.180  0.500  0.146762  42.585361  36.772422  8.954785
  13460.199  13460.190  0.500  0.146048  42.539863  36.759404  8.959620
  13464.258  13464.230  0.500  0.145493  42.492881  36.739178  8.965323
  13468.327  13468.280  0.500  0.144894  42.451115  36.725050  8.971150
  13472.343  13472.350  0.500  0.144189  42.399910  36.706638  8.974745
  13476.449  13476.440  0.500  0.143489  42.361132  36.698738  8.981991
  13480.565  13480.550  0.500  0.143038  42.204988  36.579958  8.960493
  13484.684  13484.680  0.500  0.142271  42.258930  36.654809  8.989212
  13488.861  13488.830  0.500  0.141579  42.265805  36.686161  9.004980
  13493.001  13492.990  0.500  0.141038  42.175532  36.627602  9.000253
  13497.183  13497.180  0.500  0.140225  42.173439  36.655596  9.015470
  13501.416  13501.380  0.500  0.139632  42.131174  36.640549  9.020947
  13505.635  13505.610  0.500  0.139080  42.084256  36.619985  9.027935
  13509.873  13509.850  0.500  0.138386  42.030309  36.598414  9.030472
  13514.121  13514.110  0.500  0.137812  41.978606  36.574395  9.032831
  13518.381  13518.390  0.500  0.137137  41.928552  36.555451  9.037022
  13522.698  13522.690  0.500  0.136407  41.878521  36.538469  9.041513
  13527.035  13527.010  0.500  0.135808  41.805666  36.496769  9.041171
  13531.358  13531.350  0.500  0.135022  41.765535  36.490396  9.046438
  13535.741  13535.710  0.500  0.134444  41.670930  36.428815  9.040267
  13540.134  13540.090  0.500  0.133466  41.193866  36.046990  8.958908
  13544.506  13544.480  0.500  0.133117  41.680034  36.485136  9.076958
  13548.936  13548.900  0.500  0.132374  41.627487  36.466217  9.081231
  13553.338  13553.330  0.500  0.131699  41.564277  36.435434  9.082207
  13557.807  13557.780  0.500  0.131027  40.876359  35.856518  8.947481
  13562.287  13562.250  0.500  0.130369  41.494284  36.422508  9.099910
  13566.730  13566.740  0.500  0.129777  41.218968  36.202258  9.055419
  13571.304  13571.250  0.500  0.129075  41.376785  36.366382  9.107212
  13575.809  13575.780  0.500  0.128367  40.732756  35.825714  8.982459
  13580.341  13580.330  0.500  0.127590  41.307861  36.359758  9.124167
  13584.941  13584.900  0.500  0.126903  41.258735  36.341500  9.129522
  13589.495  13589.480  0.500  0.126197  41.173115  36.291686  9.126467
  13594.125  13594.090  0.500  0.125550  40.668025  35.869670  9.029830
  13598.726  13598.710  0.500  0.124749  41.131072  36.307144  9.150543
  13603.411  13603.360  0.500  0.124127  41.067502  36.273602  9.152763
  13608.051  13608.020  0.500  0.123411  41.018147  36.255950  9.158777
  13612.718  13612.700  0.500  0.122696  40.955193  36.226204  9.161668
  13617.429  13617.400  0.500  0.121987  40.919751  36.220519  9.171715
  13622.127  13622.120  0.500  0.121228  40.845555  36.182311  9.173469
  13626.893  13626.860  0.500  0.120317  40.824692  36.196781  9.186351
  13631.655  13631.610  0.500  0.119752  40.758761  36.158749  9.186992
  13636.420  13636.390  0.500  0.119041  40.730623  36.159495  9.198778
  13641.228  13641.190  0.500  0.118233  40.673695  36.138121  9.203821
  13646.041  13646.000  0.500  0.117554  40.621449  36.116214  9.210410
  13650.865  13650.830  0.500  0.116868  40.530967  36.060498  9.206726
  13655.716  13655.690  0.500  0.116106  40.541493  36.097370  9.227632
  13660.588  13660.560  0.500  0.115385  40.492794  36.080005  9.234657
  13665.479  13665.450  0.500  0.114673  40.433160  36.052538  9.236898
  13670.398  13670.360  0.500  0.113840  40.375906  36.031498  9.243768
  13675.337  13675.290  0.500  0.112894  40.317701  36.013610  9.248093
  13680.239  13680.230  0.500  0.112340  40.277603  35.997709  9.259040
  13685.235  13685.200  0.500  0.111522  40.223549  35.978818  9.263370
  13690.251  13690.190  0.500  0.110960  40.171262  35.952264  9.268617
  13695.212  13695.190  0.500  0.110121  40.115307  35.932321  9.275150
  13700.252  13700.220  0.500  0.109316  40.064485  35.915708  9.280896
  13705.287  13705.260  0.500  0.108497  40.008702  35.895057  9.288403
  13710.358  13710.320  0.500  0.107772  39.959665  35.877094  9.293445
  13715.425  13715.400  0.500  0.107021  39.914343  35.863301  9.301959
  13720.562  13720.500  0.500  0.106255  39.856756  35.839015  9.307175
  13725.653  13725.620  0.500  0.105461  39.811452  35.826706  9.314997
  13730.806  13730.760  0.500  0.104728  39.761780  35.808250  9.322277
  13735.979  13735.920  0.500  0.103823  39.701832  35.786615  9.327056
  13741.139  13741.100  0.500  0.103139  39.647242  35.761891  9.333358
  13746.320  13746.290  0.500  0.102354  39.591409  35.739546  9.338502
  13751.521  13751.510  0.500  0.101620  39.527271  35.707877  9.339801
  13756.793  13756.740  0.500  0.100870  39.475951  35.688239  9.348128
  13762.035  13761.990  0.500  0.100084  39.420302  35.665969  9.355266
  13767.281  13767.260  0.500  0.099238  39.367231  35.648094  9.360751
  13772.615  13772.550  0.500  0.098429  39.311257  35.626239  9.369478
  13777.886  13777.860  0.500  0.097732  39.254319  35.599442  9.373071
  13783.261  13783.190  0.500  0.096865  39.203407  35.584079  9.381408
  13788.590  13788.540  0.500  0.096235  39.147826  35.556042  9.384831
  13793.948  13793.910  0.500  0.095318  39.084995  35.531529  9.389964
  13799.344  13799.290  0.500  0.094653  39.032633  35.507552  9.398556
  13804.744  13804.700  0.500  0.093661  38.975329  35.490587  9.405089
  13810.157  13810.120  0.500  0.092872  38.922105  35.470095  9.411546
  13815.632  13815.570  0.500  0.092078  38.832420  35.416482  9.409457
  13821.079  13821.030  0.500  0.091293  38.808078  35.422097  9.421983
  13826.588  13826.510  0.500  0.090463  38.735722  35.385396  9.425454
  13832.043  13832.010  0.500  0.089604  38.693033  35.376783  9.435560
  13837.628  13837.530  0.500  0.088907  38.617236  35.332088  9.437277
  13843.033  13843.070  0.500  0.087964  38.563342  35.316070  9.443893
  13848.594  13848.620  0.500  0.087295  38.500007  35.281653  9.446340
  13854.192  13854.200  0.500  0.086365  38.406935  35.229132  9.446500
  13859.787  13859.800  0.500  0.085564  38.373459  35.226623  9.458762
  13865.420  13865.410  0.500  0.084716  38.304291  35.192962  9.462297
  13871.065  13871.050  0.500  0.083922  38.218940  35.142429  9.462242
  13876.724  13876.700  0.500  0.083096  38.125811  35.085781  9.458139
  13882.371  13882.370  0.500  0.082226  37.953478  34.957572  9.437031
  13888.098  13888.060  0.500  0.081421  37.822856  34.865309  9.425900
