# XDI/1.0 BlueSky/1.10.0 BMM/2023-1.0-py310-tiled
# Beamline.name: BMM (06BM) -- Beamline for Materials Measurement (NIST)
# Beamline.xray_source: NSLS-II three-pole wiggler
# Beamline.collimation: paraboloid mirror, 5 nm Rh on 30 nm Pt
# Beamline.focusing: not in use
# Beamline.harmonic_rejection: flat mirror, Pt stripe, pitch = 7.0 mrad relative to beam
# Beamline.software: Bluesky 1.10.0, Ophyd 1.7.0, DataBroker 2.0.0b13, Python 3.10.8, 2023-1.0-py310-tiled
# Detector.I0: 10 cm N2
# Detector.I1: 25 cm N2
# Detector.I2: 25 cm N2
# Element.symbol: Pb
# Element.edge: L1
# Element.reference: Pb
# Element.reference_material: Pb foil
# Facility.name: NSLS-II
# Facility.energy: 3.0
# Facility.current: 399.5
# Facility.mode: top-off
# Facility.GUP: 301027
# Facility.SAF: 310583
# Facility.cycle: 2023-2
# Mono.name: Si(111)
# Mono.d_spacing: 3.1351860
# Mono.encoder_resolution: 0.0000050 deg/ct
# Mono.angle_offset: 16.0754326 deg
# Mono.scan_mode: pseudo channel cut
# Mono.scan_type: step
# Mono.direction: forward in energy
# Sample.name: Pb foil
# Sample.prep: reference foil
# Sample.x: 109.138 mm
# Sample.y: 153.150 mm
# Sample.SDD_position: 205.000 mm
# Scan.experimenters: Bruce Ravel
# Scan.edge_energy: 15860.8
# Scan.start_time: 2023-05-28T21:36:43
# Scan.end_time: 2023-05-28T21:44:12
# Scan.transient_id: 79036
# Scan.uid: e3ca848f-d3ff-4bd5-ad72-294bd51d37a1
# Scan.plot_hint: ln(It/Ir)  --  ln($6/$7)
# Column.1: energy eV
# Column.2: requested_energy eV
# Column.3: measurement_time seconds
# Column.4: xmu 
# Column.5: I0 nA
# Column.6: It nA
# Column.7: Ir nA
# ///////////
# standard reference foil
# -----------
# energy  requested_energy  measurement_time  xmu  I0  It  Ir
  15660.720  15660.800  0.500  1.297320  22.807915  41.780161  11.416974
  15670.766  15670.800  0.500  1.295718  22.740148  41.658979  11.402114
  15681.116  15680.800  0.500  1.293975  22.735958  41.658207  11.421800
  15690.854  15690.800  0.500  1.292101  22.856412  41.886886  11.506038
  15700.864  15700.800  0.500  1.290370  22.821374  41.829908  11.510297
  15710.811  15710.800  0.500  1.288577  22.782043  41.760644  11.511857
  15720.857  15720.800  0.500  1.286687  22.724894  41.655555  11.504605
  15730.797  15730.800  0.500  1.284900  22.668827  41.560101  11.498778
  15740.793  15740.800  0.500  1.283281  22.634062  41.496712  11.499845
  15750.823  15750.800  0.500  1.281516  22.566081  41.377874  11.487162
  15760.823  15760.800  0.500  1.280261  22.530941  41.319186  11.485275
  15770.792  15770.800  0.500  1.278849  22.502918  41.272951  11.488636
  15780.851  15780.800  0.500  1.277639  22.450775  41.179804  11.476582
  15790.802  15790.800  0.500  1.276520  22.413413  41.118330  11.472286
  15800.831  15800.800  0.500  1.275860  22.352457  41.015088  11.451033
  15810.840  15810.800  0.500  1.275219  22.315804  40.945628  11.438974
  15820.830  15820.800  0.500  1.275603  22.259321  40.850942  11.408140
  15830.865  15830.800  0.500  1.277211  22.205417  40.753747  11.362712
  15832.763  15832.800  0.500  1.277912  22.202658  40.750307  11.353790
  15834.761  15834.800  0.500  1.278527  22.185330  40.721727  11.338849
  15836.760  15836.800  0.500  1.279814  22.175206  40.703162  11.319097
  15838.737  15838.800  0.500  1.281173  22.166830  40.688904  11.299771
  15840.758  15840.800  0.500  1.282456  22.150454  40.657441  11.276553
  15842.759  15842.800  0.500  1.284488  22.144390  40.646232  11.250566
  15844.770  15844.800  0.500  1.287276  22.136184  40.634228  11.215923
  15846.782  15846.800  0.500  1.290551  22.128745  40.619834  11.175296
  15848.773  15848.800  0.500  1.295275  22.119205  40.599783  11.117131
  15850.786  15850.800  0.500  1.301357  22.100785  40.567157  11.040847
  15851.028  15851.100  0.500  1.302364  22.095479  40.561171  11.028112
  15851.347  15851.400  0.500  1.303539  22.099364  40.564389  11.016025
  15851.655  15851.700  0.500  1.304777  22.109290  40.583512  11.007589
  15851.963  15852.000  0.500  1.306083  22.079496  40.535086  10.980100
  15852.238  15852.300  0.500  1.307479  22.078664  40.533962  10.964477
  15852.546  15852.600  0.500  1.308888  22.074622  40.524376  10.946459
  15852.832  15852.900  0.500  1.310234  22.132411  40.634709  10.961490
  15853.141  15853.200  0.500  1.311725  22.150096  40.666818  10.953815
  15853.438  15853.500  0.500  1.313510  22.141569  40.652008  10.930289
  15853.757  15853.800  0.500  1.315237  22.147170  40.661001  10.913848
  15854.065  15854.100  0.500  1.317125  22.147857  40.657258  10.892255
  15854.351  15854.400  0.500  1.318931  22.165918  40.691473  10.881754
  15854.648  15854.700  0.500  1.321085  22.160288  40.684604  10.856505
  15854.935  15855.000  0.500  1.322959  22.145554  40.657798  10.829042
  15855.254  15855.300  0.500  1.325429  22.157269  40.677747  10.807630
  15855.562  15855.600  0.500  1.327780  22.151912  40.666607  10.779301
  15855.870  15855.900  0.500  1.330474  22.147635  40.658399  10.748125
  15856.146  15856.200  0.500  1.333115  22.145251  40.652937  10.718338
  15856.432  15856.500  0.500  1.335897  22.134509  40.638258  10.684704
  15856.762  15856.800  0.500  1.339015  22.137397  40.642415  10.652533
  15857.059  15857.100  0.500  1.342435  22.136720  40.646366  10.617190
  15857.379  15857.400  0.500  1.345836  22.146816  40.665338  10.586079
  15857.665  15857.700  0.500  1.349292  22.134816  40.635848  10.541904
  15857.962  15858.000  0.500  1.352865  22.132156  40.639138  10.505164
  15858.249  15858.300  0.500  1.356420  22.128040  40.627726  10.464936
  15858.546  15858.600  0.500  1.360557  22.124306  40.623321  10.420610
  15858.854  15858.900  0.500  1.364822  22.130499  40.635202  10.379297
  15859.185  15859.200  0.500  1.369429  22.114096  40.602858  10.323358
  15859.460  15859.500  0.500  1.373593  22.114268  40.601971  10.280237
  15859.769  15859.800  0.500  1.378000  22.113837  40.598046  10.234047
  15860.088  15860.100  0.500  1.382716  22.114278  40.603415  10.187243
  15860.385  15860.400  0.500  1.387413  22.111508  40.589038  10.135920
  15860.705  15860.700  0.500  1.391935  22.124168  40.617259  10.097200
  15861.002  15861.000  0.500  1.396434  22.116068  40.610303  10.050155
  15861.278  15861.300  0.500  1.400865  22.112579  40.605767  10.004602
  15861.564  15861.600  0.500  1.404813  22.107270  40.591484  9.961677
  15861.895  15861.900  0.500  1.408835  22.100489  40.577429  9.918259
  15862.192  15862.200  0.500  1.412819  22.113697  40.600379  9.884410
  15862.501  15862.500  0.500  1.416567  22.087052  40.554699  9.836347
  15862.809  15862.800  0.500  1.419745  22.090994  40.556909  9.805671
  15863.085  15863.100  0.500  1.422928  22.094590  40.565839  9.776663
  15863.393  15863.400  0.500  1.425437  22.088509  40.553814  9.749277
  15863.713  15863.700  0.500  1.427793  22.088100  40.554767  9.726561
  15864.021  15864.000  0.500  1.429916  22.084438  40.549822  9.704751
  15864.319  15864.300  0.500  1.431650  22.083364  40.551773  9.688399
  15864.605  15864.600  0.500  1.432850  22.086318  40.547851  9.675849
  15864.903  15864.900  0.500  1.433745  22.072861  40.529248  9.662758
  15865.201  15865.200  0.500  1.434651  22.081941  40.543258  9.657344
  15865.509  15865.500  0.500  1.434870  22.070156  40.523240  9.650460
  15865.807  15865.800  0.500  1.435162  22.076185  40.534878  9.650418
  15866.093  15866.100  0.500  1.434952  22.079499  40.540421  9.653756
  15866.391  15866.400  0.500  1.434921  22.078669  40.544729  9.655085
  15866.689  15866.700  0.500  1.433924  22.072179  40.526881  9.660465
  15867.008  15867.000  0.500  1.433381  22.053705  40.492924  9.657614
  15867.317  15867.300  0.500  1.432404  22.051671  40.492763  9.667007
  15867.615  15867.600  0.500  1.431523  22.057701  40.497864  9.676753
  15867.879  15867.900  0.500  1.430519  22.050718  40.492531  9.685198
  15868.210  15868.200  0.500  1.429144  22.055359  40.499584  9.700213
  15868.508  15868.500  0.500  1.428089  22.060426  40.500764  9.710732
  15868.806  15868.800  0.500  1.426849  22.062470  40.510886  9.725213
  15869.092  15869.100  0.500  1.425906  22.047652  40.485329  9.728242
  15869.379  15869.400  0.500  1.424643  22.041942  40.470377  9.736943
  15869.699  15869.700  0.500  1.423451  22.049925  40.484296  9.751906
  15870.008  15870.000  0.500  1.422385  22.035426  40.463910  9.757391
  15870.328  15870.300  0.500  1.421159  22.033853  40.461266  9.768728
  15870.603  15870.600  0.500  1.420213  22.036258  40.459370  9.777510
  15870.901  15870.900  0.500  1.419364  22.049500  40.486349  9.792344
  15871.188  15871.200  0.500  1.418548  22.037294  40.463227  9.794740
  15871.486  15871.500  0.500  1.417721  22.027435  40.444861  9.798396
  15871.795  15871.800  0.500  1.417215  22.030589  40.451387  9.804934
  15872.070  15872.100  0.500  1.416674  22.035320  40.459602  9.812237
  15872.379  15872.400  0.500  1.416061  22.022218  40.441338  9.813817
  15872.677  15872.700  0.500  1.415619  22.024798  40.446383  9.819383
  15872.997  15873.000  0.500  1.415249  22.025148  40.441542  9.821844
  15873.317  15873.300  0.500  1.414968  22.014495  40.426038  9.820834
  15873.593  15873.600  0.500  1.414917  22.030077  40.455187  9.828420
  15873.891  15873.900  0.500  1.414703  22.019437  40.439180  9.826629
  15874.178  15874.200  0.500  1.414606  22.000572  40.401595  9.818449
  15874.476  15874.500  0.500  1.414797  22.002224  40.401092  9.816449
  15874.785  15874.800  0.500  1.414676  21.994372  40.393168  9.815715
  15875.083  15875.100  0.500  1.414835  22.003575  40.405982  9.817272
  15875.370  15875.400  0.500  1.414841  22.006865  40.412163  9.818715
  15875.679  15875.700  0.500  1.414949  21.994401  40.385846  9.811254
  15875.999  15876.000  0.500  1.415270  21.993478  40.385245  9.807962
  15876.297  15876.300  0.500  1.415373  22.014621  40.422760  9.816062
  15876.606  15876.600  0.500  1.415537  22.007395  40.409836  9.811313
  15876.893  15876.900  0.500  1.415685  22.007317  40.416913  9.811583
  15877.180  15877.200  0.500  1.416249  21.991613  40.379938  9.797076
  15877.500  15877.500  0.500  1.416391  21.979185  40.365317  9.792141
  15877.798  15877.800  0.500  1.416754  21.994933  40.391790  9.795008
  15878.085  15878.100  0.500  1.416982  21.992233  40.390637  9.792494
  15878.383  15878.400  0.500  1.417131  21.979290  40.362767  9.784281
  15878.692  15878.700  0.500  1.417342  21.996163  40.396256  9.790325
  15879.012  15879.000  0.500  1.417845  21.981815  40.372916  9.779754
  15879.322  15879.300  0.500  1.417772  21.977134  40.358814  9.777046
  15879.620  15879.600  0.500  1.417693  21.976480  40.355544  9.777028
  15879.907  15879.900  0.500  1.418073  21.991263  40.383322  9.780045
  15880.205  15880.200  0.500  1.418098  21.974352  40.359680  9.774075
  15880.492  15880.500  0.500  1.418243  21.984139  40.377296  9.776925
  15880.812  15880.800  0.500  1.418260  21.974044  40.354556  9.771250
  15881.100  15881.100  0.500  1.418046  21.986621  40.376384  9.778627
  15881.387  15881.400  0.500  1.417932  21.959754  40.329394  9.768358
  15881.707  15881.700  0.500  1.417954  21.961663  40.334045  9.769271
  15882.016  15882.000  0.500  1.417529  21.972285  40.350116  9.777316
  15882.315  15882.300  0.500  1.417374  21.973175  40.355817  9.780219
  15882.613  15882.600  0.500  1.417076  21.948211  40.308644  9.771694
  15882.900  15882.900  0.500  1.416789  21.953636  40.320414  9.777353
  15883.209  15883.200  0.500  1.416466  21.960147  40.325861  9.781834
  15883.508  15883.500  0.500  1.416097  21.955649  40.321032  9.784269
  15883.828  15883.800  0.500  1.415729  21.957681  40.319557  9.787519
  15884.093  15884.100  0.500  1.415633  21.964444  40.338845  9.793137
  15884.403  15884.400  0.500  1.415022  21.941172  40.291982  9.787740
  15884.701  15884.700  0.500  1.414628  21.940838  40.291889  9.791578
  15885.043  15885.000  0.500  1.414299  21.952704  40.323611  9.802512
  15885.320  15885.300  0.500  1.413845  21.935552  40.284615  9.797478
  15885.607  15885.600  0.500  1.413350  21.935992  40.287133  9.802937
  15885.795  15885.800  0.500  1.413329  21.928000  40.272140  9.799500
  15886.801  15886.790  0.500  1.412125  21.937579  40.292433  9.816247
  15887.795  15887.790  0.500  1.411062  21.923982  40.270825  9.821412
  15888.801  15888.810  0.500  1.410187  21.919370  40.256639  9.826551
  15889.841  15889.860  0.500  1.409463  21.914595  40.250695  9.832215
  15890.924  15890.920  0.500  1.409027  21.917888  40.252521  9.836945
  15891.997  15892.000  0.500  1.409117  21.912619  40.246597  9.834612
  15893.092  15893.100  0.500  1.409290  21.909152  40.240339  9.831391
  15894.209  15894.220  0.500  1.409608  21.893997  40.212071  9.821353
  15895.382  15895.360  0.500  1.410280  21.882199  40.191240  9.809678
  15896.544  15896.510  0.500  1.411130  21.873833  40.178255  9.798178
  15897.706  15897.690  0.500  1.411952  21.872415  40.175365  9.789416
  15898.868  15898.880  0.500  1.412685  21.857976  40.145558  9.774990
  15900.108  15900.100  0.500  1.413494  21.860542  40.154699  9.769304
  15901.348  15901.330  0.500  1.414261  21.866511  40.170160  9.765571
  15902.599  15902.580  0.500  1.414338  21.844063  40.125934  9.754069
  15903.851  15903.850  0.500  1.414331  21.835571  40.110178  9.750313
  15905.147  15905.140  0.500  1.413944  21.849396  40.136575  9.760506
  15906.443  15906.450  0.500  1.413468  21.830438  40.102703  9.756910
  15907.784  15907.780  0.500  1.412499  21.824595  40.097108  9.765007
  15909.147  15909.130  0.500  1.411508  21.811484  40.071072  9.768345
  15910.533  15910.500  0.500  1.410251  21.777979  40.003078  9.764028
  15911.907  15911.880  0.500  1.409378  21.647300  39.768561  9.715266
  15913.316  15913.290  0.500  1.407970  21.629761  39.735127  9.720781
  15914.746  15914.710  0.500  1.407096  21.757899  39.965225  9.785617
  15916.166  15916.150  0.500  1.406778  21.805338  40.053480  9.810347
  15917.631  15917.610  0.500  1.406339  21.782267  40.012923  9.804717
  15919.106  15919.090  0.500  1.406473  21.789236  40.031008  9.807836
  15920.572  15920.590  0.500  1.406316  21.776107  40.005252  9.803060
  15922.103  15922.110  0.500  1.406827  21.762027  39.983431  9.792706
  15923.636  15923.650  0.500  1.407163  21.748081  39.957807  9.783142
  15925.202  15925.210  0.500  1.407013  21.757487  39.973963  9.788571
  15926.801  15926.780  0.500  1.407373  21.733155  39.933576  9.775165
  15928.434  15928.380  0.500  1.407087  21.727982  39.922427  9.775229
  15930.034  15929.990  0.500  1.406977  21.721473  39.912130  9.773777
  15931.646  15931.630  0.500  1.406691  21.711786  39.891128  9.771428
  15933.302  15933.280  0.500  1.406591  21.724291  39.924158  9.780501
  15934.937  15934.950  0.500  1.406200  21.700993  39.874565  9.772175
  15936.627  15936.640  0.500  1.405548  21.684634  39.851403  9.772861
  15938.373  15938.350  0.500  1.404721  21.678537  39.836835  9.777370
  15940.076  15940.080  0.500  1.404393  21.670773  39.822557  9.777074
  15941.879  15941.830  0.500  1.403369  21.665100  39.811371  9.784344
  15943.615  15943.590  0.500  1.402637  21.656728  39.794650  9.787394
  15945.419  15945.380  0.500  1.401926  21.638993  39.765562  9.787203
  15947.200  15947.180  0.500  1.401425  21.615786  39.722545  9.781513
  15949.016  15949.010  0.500  1.400927  21.494852  39.502963  9.732285
  15950.854  15950.850  0.500  1.400596  21.414273  39.361924  9.700752
  15952.704  15952.710  0.500  1.400116  21.599404  39.699382  9.788611
  15954.588  15954.590  0.500  1.399969  21.628205  39.750285  9.802605
  15956.539  15956.490  0.500  1.399823  21.608863  39.717176  9.795871
  15958.424  15958.410  0.500  1.399638  21.606213  39.710971  9.796146
  15960.376  15960.350  0.500  1.399270  21.582459  39.671860  9.790100
  15962.317  15962.310  0.500  1.399024  21.579312  39.663082  9.790342
  15964.281  15964.280  0.500  1.398670  21.583738  39.671484  9.795886
  15966.290  15966.280  0.500  1.398158  21.561080  39.633669  9.791562
  15968.300  15968.290  0.500  1.397834  21.597629  39.700233  9.811189
  15970.322  15970.320  0.500  1.397569  21.606501  39.719066  9.818438
  15972.411  15972.380  0.500  1.397002  21.614653  39.736087  9.828218
  15974.478  15974.450  0.500  1.396549  21.594709  39.700709  9.823914
  15976.579  15976.540  0.500  1.396072  21.599442  39.707770  9.830349
  15978.648  15978.650  0.500  1.395261  21.572695  39.655294  9.825332
  15980.806  15980.780  0.500  1.394970  21.568064  39.658293  9.828926
  15982.909  15982.920  0.500  1.394506  21.523844  39.569590  9.811500
  15985.080  15985.090  0.500  1.394055  21.386897  39.315452  9.752880
  15987.284  15987.280  0.500  1.393194  21.393366  39.334533  9.766015
  15989.512  15989.480  0.500  1.392928  21.530685  39.586978  9.831312
  15991.730  15991.700  0.500  1.392418  21.527935  39.584587  9.835732
  15993.970  15993.950  0.500  1.391918  21.521011  39.572083  9.837546
  15996.211  15996.210  0.500  1.391513  21.511731  39.555671  9.837447
  15998.497  15998.490  0.500  1.390995  21.490709  39.522535  9.834296
  16000.773  16000.790  0.500  1.390295  21.507585  39.549189  9.847816
  16003.128  16003.110  0.500  1.390024  21.471369  39.486092  9.834779
  16005.506  16005.450  0.500  1.389617  21.462299  39.466458  9.833886
  16007.818  16007.800  0.500  1.388855  21.452323  39.453043  9.838041
  16010.186  16010.180  0.500  1.388390  21.437526  39.424000  9.835368
  16012.578  16012.570  0.500  1.387720  21.427624  39.410107  9.838493
  16014.981  16014.990  0.500  1.387319  21.405708  39.368852  9.832134
  16017.419  16017.420  0.500  1.386618  21.403612  39.365371  9.838154
  16019.880  16019.870  0.500  1.386186  21.375432  39.313676  9.829480
  16022.387  16022.350  0.500  1.385666  21.376770  39.319163  9.835973
  16024.872  16024.840  0.500  1.385141  21.167184  38.929942  9.743714
  16027.392  16027.350  0.500  1.384538  21.286204  39.150290  9.804776
  16029.879  16029.870  0.500  1.383990  21.301504  39.179519  9.817481
  16032.434  16032.420  0.500  1.383645  21.328809  39.235108  9.834800
  16035.012  16034.990  0.500  1.382935  21.314703  39.205763  9.834427
  16037.592  16037.570  0.500  1.382741  21.314730  39.212410  9.838002
  16040.205  16040.180  0.500  1.382086  21.298596  39.182220  9.836867
  16042.820  16042.800  0.500  1.381777  21.298743  39.182990  9.840098
  16045.458  16045.450  0.500  1.381229  21.275390  39.134339  9.833263
  16048.109  16048.110  0.500  1.380390  21.261619  39.115869  9.836880
  16050.805  16050.790  0.500  1.379891  21.255601  39.103744  9.838737
  16053.491  16053.490  0.500  1.379438  21.241258  39.083350  9.838058
  16056.212  16056.210  0.500  1.378876  21.230865  39.066277  9.839286
  16058.945  16058.950  0.500  1.378359  21.225031  39.047257  9.839581
  16061.712  16061.700  0.500  1.377768  21.206047  39.018922  9.838261
  16064.504  16064.480  0.500  1.377015  21.196143  39.000590  9.841039
  16067.296  16067.270  0.500  1.376490  21.178177  38.966066  9.837498
  16070.123  16070.090  0.500  1.375854  21.167096  38.955510  9.841083
  16072.918  16072.920  0.500  1.375400  21.161527  38.946554  9.843288
  16075.747  16075.770  0.500  1.374766  21.101538  38.836758  9.821767
  16078.668  16078.650  0.500  1.374084  21.096943  38.825704  9.825671
  16081.578  16081.540  0.500  1.373652  21.126795  38.884922  9.844910
  16084.479  16084.450  0.500  1.373066  21.105981  38.844988  9.840565
  16087.414  16087.370  0.500  1.372542  21.087264  38.819333  9.839220
  16090.328  16090.320  0.500  1.371900  21.073007  38.786971  9.837333
  16093.299  16093.290  0.500  1.371382  21.060571  38.770850  9.838341
  16096.306  16096.270  0.500  1.370740  21.044366  38.736728  9.835990
  16099.325  16099.280  0.500  1.370170  21.022389  38.701893  9.832749
  16102.323  16102.300  0.500  1.369648  21.015612  38.688378  9.834444
  16105.355  16105.350  0.500  1.368669  20.995838  38.651416  9.834671
  16108.389  16108.410  0.500  1.368260  20.987194  38.639541  9.835672
  16111.470  16111.490  0.500  1.367451  20.981969  38.622159  9.839207
  16114.609  16114.590  0.500  1.366837  20.958042  38.589036  9.836805
  16117.737  16117.710  0.500  1.366152  20.945983  38.567571  9.838068
  16120.878  16120.850  0.500  1.365603  20.930709  38.540445  9.836555
  16124.009  16124.000  0.500  1.364779  20.854978  38.408113  9.810861
  16127.198  16127.180  0.500  1.364147  20.911811  38.506439  9.842191
  16130.423  16130.370  0.500  1.363205  20.893531  38.473642  9.843081
  16133.615  16133.590  0.500  1.362586  20.875873  38.441815  9.841028
  16136.831  16136.820  0.500  1.362077  20.864290  38.416018  9.839428
  16140.059  16140.070  0.500  1.361397  20.858935  38.415203  9.845909
  16143.369  16143.350  0.500  1.360729  20.821563  38.342553  9.833854
  16146.691  16146.640  0.500  1.359973  20.802494  38.313951  9.833949
  16150.015  16149.950  0.500  1.359517  20.814779  38.335953  9.844087
  16153.306  16153.270  0.500  1.358591  20.788728  38.287606  9.840780
  16156.644  16156.620  0.500  1.358106  20.774106  38.267971  9.840504
  16159.972  16159.990  0.500  1.357360  20.763864  38.246767  9.842395
  16163.393  16163.370  0.500  1.356661  20.753887  38.235967  9.846496
  16166.804  16166.780  0.500  1.356001  20.723688  38.175187  9.837334
  16170.239  16170.200  0.500  1.355316  20.702357  38.138764  9.834685
  16173.676  16173.650  0.500  1.354350  20.642804  38.023959  9.814556
  16177.103  16177.110  0.500  1.353699  20.682970  38.101202  9.840899
  16180.623  16180.590  0.500  1.352807  20.687822  38.112999  9.852725
  16184.156  16184.090  0.500  1.352355  20.656808  38.055318  9.842263
  16187.644  16187.610  0.500  1.351466  20.653982  38.054624  9.850834
  16191.169  16191.150  0.500  1.350866  20.619795  37.995858  9.841525
  16194.695  16194.700  0.500  1.350283  20.610958  37.979809  9.843109
  16198.315  16198.280  0.500  1.349323  20.579545  37.922295  9.837646
  16201.925  16201.880  0.500  1.348636  20.563177  37.896504  9.837712
  16205.490  16205.490  0.500  1.347918  20.570344  37.908866  9.847989
  16209.138  16209.120  0.500  1.346822  20.547880  37.864212  9.847173
  16212.833  16212.780  0.500  1.346397  20.525995  37.830134  9.842496
  16216.484  16216.450  0.500  1.345653  20.514223  37.807517  9.843934
  16220.159  16220.140  0.500  1.344862  20.487302  37.755717  9.838217
  16223.859  16223.850  0.500  1.344164  20.479400  37.744858  9.842256
  16227.585  16227.580  0.500  1.343376  20.454104  37.703486  9.839220
  16231.334  16231.320  0.500  1.342491  20.438657  37.673961  9.840218
  16235.167  16235.090  0.500  1.341933  20.395356  37.598744  9.826060
  16238.932  16238.880  0.500  1.341129  20.392328  37.590168  9.831719
  16242.699  16242.680  0.500  1.340381  20.388145  37.586588  9.838138
  16246.560  16246.510  0.500  1.339537  20.371523  37.553073  9.837667
  16250.376  16250.350  0.500  1.338826  20.351255  37.518125  9.835503
  16254.276  16254.210  0.500  1.338002  20.318646  37.463083  9.829163
  16258.119  16258.090  0.500  1.336995  20.318381  37.462421  9.838895
  16262.034  16261.990  0.500  1.336248  20.302645  37.436020  9.839310
  16265.950  16265.910  0.500  1.335412  20.284467  37.405376  9.839473
  16269.892  16269.850  0.500  1.334421  20.272469  37.380699  9.842733
  16273.859  16273.810  0.500  1.333822  20.267016  37.370481  9.845941
  16277.804  16277.780  0.500  1.332946  20.241602  37.331992  9.844422
  16281.764  16281.780  0.500  1.332287  20.223950  37.297738  9.841872
  16285.818  16285.790  0.500  1.331321  20.203530  37.260278  9.841491
  16289.850  16289.830  0.500  1.330549  20.188744  37.236247  9.842732
  16293.943  16293.880  0.500  1.329751  20.166371  37.198388  9.840580
  16297.969  16297.950  0.500  1.328912  20.157140  37.176220  9.842970
  16302.054  16302.040  0.500  1.327973  20.124852  37.119671  9.837232
  16306.188  16306.150  0.500  1.327116  20.066875  37.016454  9.818290
  16310.348  16310.280  0.500  1.326449  20.103266  37.084541  9.842904
  16314.451  16314.430  0.500  1.325747  20.078439  37.041577  9.838407
  16318.603  16318.590  0.500  1.324952  20.062594  37.011741  9.838306
  16322.804  16322.780  0.500  1.323936  20.043777  36.974856  9.838494
  16327.042  16326.980  0.500  1.323146  20.023033  36.945635  9.838483
  16331.236  16331.210  0.500  1.322245  20.002304  36.908943  9.837575
  16335.467  16335.450  0.500  1.321456  19.978273  36.861273  9.832618
  16339.746  16339.710  0.500  1.320466  19.969157  36.849418  9.839195
  16344.075  16343.990  0.500  1.319794  19.945086  36.805303  9.834017
  16348.348  16348.290  0.500  1.318912  19.944439  36.806871  9.843117
  16352.681  16352.610  0.500  1.317958  19.906467  36.743642  9.835591
  16356.959  16356.950  0.500  1.317151  19.892665  36.711127  9.834814
  16361.367  16361.310  0.500  1.316154  19.870162  36.672388  9.834243
  16365.778  16365.690  0.500  1.315398  19.851458  36.643967  9.834052
  16370.121  16370.080  0.500  1.314601  19.814412  36.575493  9.823499
  16374.548  16374.500  0.500  1.313653  19.752911  36.463427  9.802685
  16379.002  16378.930  0.500  1.313000  19.800661  36.557946  9.834519
  16383.481  16383.380  0.500  1.312174  19.783153  36.519737  9.832358
  16387.998  16387.850  0.500  1.311144  19.762610  36.483513  9.832732
  16392.282  16392.340  0.500  1.310410  19.733391  36.435410  9.826972
  16396.804  16396.850  0.500  1.309497  19.714694  36.396694  9.825500
  16401.316  16401.380  0.500  1.308557  19.679139  36.334380  9.817897
  16405.891  16405.930  0.500  1.307748  19.669739  36.323309  9.822854
  16410.479  16410.500  0.500  1.306808  19.659207  36.305175  9.827186
  16415.046  16415.080  0.500  1.305840  19.636329  36.267602  9.826520
  16419.652  16419.690  0.500  1.305130  19.606969  36.209382  9.817716
  16424.272  16424.310  0.500  1.304090  19.598900  36.198753  9.825047
  16428.930  16428.960  0.500  1.303253  19.574297  36.149005  9.819761
  16433.590  16433.620  0.500  1.302284  19.544727  36.094931  9.814578
  16438.254  16438.300  0.500  1.301502  19.514526  36.051204  9.810349
  16442.991  16443.000  0.500  1.300562  19.472167  35.969444  9.797306
  16447.683  16447.720  0.500  1.299309  19.484709  35.990394  9.815305
  16452.437  16452.460  0.500  1.298537  19.469969  35.970953  9.817585
  16457.195  16457.210  0.500  1.297594  19.460814  35.954489  9.822345
  16461.990  16461.990  0.500  1.296808  19.422694  35.888337  9.811980
  16466.800  16466.790  0.500  1.295722  19.415442  35.873905  9.818698
  16471.602  16471.600  0.500  1.294897  19.390197  35.827773  9.814159
  16476.406  16476.430  0.500  1.294054  19.362522  35.780484  9.809476
  16481.284  16481.290  0.500  1.292941  19.341698  35.745349  9.810752
  16486.165  16486.160  0.500  1.292072  19.328504  35.716757  9.811427
  16491.049  16491.050  0.500  1.291072  19.307007  35.676655  9.810215
  16495.936  16495.960  0.500  1.290492  19.285603  35.644620  9.807095
  16500.874  16500.890  0.500  1.289305  19.258248  35.597005  9.805627
  16505.862  16505.830  0.500  1.288182  19.234184  35.548582  9.803288
  16510.829  16510.800  0.500  1.287272  19.270243  35.619287  9.831729
  16515.824  16515.790  0.500  1.286322  19.260264  35.608809  9.838178
  16520.797  16520.790  0.500  1.285426  19.243320  35.574887  9.837619
  16525.810  16525.820  0.500  1.284652  19.214832  35.520872  9.830290
  16530.897  16530.860  0.500  1.283537  19.192787  35.481681  9.830396
  16535.952  16535.920  0.500  1.282574  19.164861  35.430980  9.825812
  16540.997  16541.000  0.500  1.281563  19.150867  35.404099  9.828282
  16546.094  16546.100  0.500  1.280749  19.105879  35.325876  9.814555
  16551.218  16551.220  0.500  1.279703  19.103115  35.327869  9.825379
  16556.393  16556.360  0.500  1.278662  19.082381  35.286322  9.824046
  16561.524  16561.520  0.500  1.277834  19.047429  35.226604  9.815551
  16566.741  16566.700  0.500  1.276637  19.033088  35.195927  9.818750
  16571.902  16571.890  0.500  1.275846  19.014884  35.168234  9.818786
  16577.139  16577.110  0.500  1.274772  18.985853  35.115702  9.814652
  16582.378  16582.340  0.500  1.273822  18.973069  35.090049  9.816805
  16587.597  16587.590  0.500  1.272597  18.947397  35.044526  9.816084
  16592.880  16592.860  0.500  1.271852  18.917894  34.988376  9.807661
  16598.166  16598.150  0.500  1.270748  18.900340  34.961476  9.810944
  16603.504  16603.460  0.500  1.269702  18.871895  34.913190  9.807649
  16608.821  16608.790  0.500  1.268752  18.852106  34.877237  9.806864
  16614.141  16614.140  0.500  1.267636  18.827812  34.831286  9.804881
  16619.538  16619.510  0.500  1.266852  18.802782  34.792439  9.801626
  16624.913  16624.890  0.500  1.265710  18.789620  34.764685  9.805000
  16630.317  16630.300  0.500  1.264801  18.769231  34.731582  9.804567
  16635.736  16635.720  0.500  1.263627  18.736628  34.672801  9.799469
  16641.195  16641.170  0.500  1.262792  18.707561  34.623469  9.793703
  16646.646  16646.630  0.500  1.261776  18.675894  34.567563  9.787827
  16652.161  16652.110  0.500  1.260528  18.651786  34.523022  9.787429
  16657.643  16657.610  0.500  1.259692  18.637607  34.498026  9.788516
  16663.165  16663.130  0.500  1.258650  18.614814  34.454654  9.786408
  16668.691  16668.670  0.500  1.257529  18.585875  34.403434  9.782815
  16674.270  16674.220  0.500  1.256446  18.557275  34.350537  9.778362
  16679.827  16679.800  0.500  1.255763  18.526041  34.298311  9.770162
  16685.438  16685.400  0.500  1.254615  18.495250  34.246474  9.766601
  16691.040  16691.010  0.500  1.253593  18.470764  34.202528  9.764041
  16696.694  16696.650  0.500  1.252462  18.434378  34.132297  9.755023
  16702.328  16702.300  0.500  1.251518  18.393925  34.062510  9.744270
  16708.027  16707.970  0.500  1.250538  18.315064  33.915613  9.711759
  16713.681  16713.660  0.500  1.249807  17.934681  33.212173  9.517283
