# XDI/1.0 BlueSky/1.10.0 BMM/2023-1.0-py310-tiled
# Beamline.name: BMM (06BM) -- Beamline for Materials Measurement (NIST)
# Beamline.xray_source: NSLS-II three-pole wiggler
# Beamline.collimation: paraboloid mirror, 5 nm Rh on 30 nm Pt
# Beamline.focusing: not in use
# Beamline.harmonic_rejection: flat mirror, Pt stripe, pitch = 7.0 mrad relative to beam
# Beamline.software: Bluesky 1.10.0, Ophyd 1.7.0, DataBroker 2.0.0b13, Python 3.10.8, 2023-1.0-py310-tiled
# Detector.I0: 10 cm N2
# Detector.I1: 25 cm N2
# Detector.I2: 25 cm N2
# Element.symbol: Pb
# Element.edge: L3
# Element.reference: Pb
# Element.reference_material: Pb foil
# Facility.name: NSLS-II
# Facility.energy: 3.0
# Facility.current: 400.7
# Facility.mode: top-off
# Facility.GUP: 301027
# Facility.SAF: 310583
# Facility.cycle: 2023-2
# Mono.name: Si(111)
# Mono.d_spacing: 3.1351860
# Mono.encoder_resolution: 0.0000050 deg/ct
# Mono.angle_offset: 16.0754326 deg
# Mono.scan_mode: pseudo channel cut
# Mono.scan_type: step
# Mono.direction: forward in energy
# Sample.name: PbO2
# Sample.prep: powder in PEG pellet
# Sample.x: 143.785 mm
# Sample.y: 114.695 mm
# Sample.SDD_position: 205.000 mm
# Scan.experimenters: Bruce Ravel
# Scan.edge_energy: 13035.2
# Scan.start_time: 2023-06-23T16:50:03
# Scan.end_time: 2023-06-23T16:58:06
# Scan.transient_id: 84877
# Scan.uid: 863f7c54-7f7a-4c38-b9fa-66488bd74ece
# Scan.plot_hint: ln(I0/It)  --  ln($5/$6)
# Column.1: energy eV
# Column.2: requested_energy eV
# Column.3: measurement_time seconds
# Column.4: xmu 
# Column.5: I0 nA
# Column.6: It nA
# Column.7: Ir nA
# ///////////
# BMM standards collection
# -----------
# energy  requested_energy  measurement_time  xmu  I0  It  Ir
  12835.075  12835.200  0.500  0.242681  50.148362  39.342478  17.571763
  12845.198  12845.200  0.500  0.240839  50.038801  39.328915  17.598868
  12855.200  12855.200  0.500  0.238890  49.904795  39.300083  17.615746
  12865.225  12865.200  0.500  0.237185  49.806557  39.289684  17.640227
  12875.252  12875.200  0.500  0.235386  49.634902  39.224773  17.641812
  12885.258  12885.200  0.500  0.233500  49.569935  39.247359  17.681189
  12895.287  12895.200  0.500  0.231928  49.450481  39.214391  17.696161
  12905.288  12905.200  0.500  0.230050  49.325852  39.189079  17.709797
  12915.254  12915.200  0.500  0.228246  48.701720  38.763095  17.543745
  12925.243  12925.200  0.500  0.226717  49.076745  39.121344  17.736299
  12935.248  12935.200  0.500  0.225080  48.977803  39.106437  17.754410
  12945.298  12945.200  0.500  0.223532  48.827246  39.046641  17.750758
  12955.187  12955.200  0.500  0.221992  48.499958  38.844690  17.682358
  12965.195  12965.200  0.500  0.220589  48.633678  39.006468  17.773528
  12975.204  12975.200  0.500  0.219687  48.480881  38.919014  17.750614
  12985.221  12985.200  0.500  0.219004  48.396481  38.877773  17.740741
  12995.209  12995.200  0.500  0.218770  48.271522  38.786485  17.694125
  13005.235  13005.200  0.500  0.219823  48.161363  38.657256  17.603806
  13007.169  13007.200  0.500  0.220165  48.136133  38.623797  17.576165
  13009.147  13009.200  0.500  0.220764  48.117264  38.585517  17.545801
  13011.140  13011.200  0.500  0.221551  48.091499  38.534513  17.505756
  13013.149  13013.200  0.500  0.222340  48.065275  38.483140  17.465328
  13015.174  13015.200  0.500  0.223489  48.036236  38.415702  17.410197
  13017.169  13017.200  0.500  0.224741  48.017980  38.353049  17.346279
  13019.150  13019.200  0.500  0.226584  47.994302  38.263557  17.270492
  13021.177  13021.200  0.500  0.228775  47.972051  38.162118  17.172511
  13023.166  13023.200  0.500  0.231728  47.944803  38.027985  17.050525
  13025.157  13025.200  0.500  0.235906  47.923412  37.852539  16.890536
  13025.453  13025.500  0.500  0.236777  47.921000  37.817687  16.859698
  13025.742  13025.800  0.500  0.237537  47.918400  37.786890  16.828917
  13026.030  13026.100  0.500  0.238222  47.907466  37.752416  16.799041
  13026.341  13026.400  0.500  0.239209  47.907075  37.714866  16.767035
  13026.630  13026.700  0.500  0.240127  47.896998  37.672319  16.729269
  13026.948  13027.000  0.500  0.241154  47.896855  37.633546  16.691096
  13027.237  13027.300  0.500  0.242281  47.896078  37.590534  16.655296
  13027.533  13027.600  0.500  0.243250  47.887957  37.547785  16.614877
  13027.859  13027.900  0.500  0.244419  47.884384  37.501094  16.572683
  13028.133  13028.200  0.500  0.245784  47.884164  37.449774  16.526541
  13028.451  13028.500  0.500  0.247278  47.879405  37.390140  16.475161
  13028.762  13028.800  0.500  0.248789  47.872308  37.328183  16.422198
  13029.051  13029.100  0.500  0.250407  47.865743  37.262701  16.367515
  13029.369  13029.400  0.500  0.252335  47.860139  37.186593  16.302208
  13029.643  13029.700  0.500  0.254147  47.854769  37.115084  16.241342
  13029.969  13030.000  0.500  0.256245  47.853264  37.036146  16.170247
  13030.265  13030.300  0.500  0.258648  47.852577  36.946739  16.095632
  13030.554  13030.600  0.500  0.260986  47.845369  36.854897  16.015487
  13030.880  13030.900  0.500  0.264097  47.838879  36.735443  15.921657
  13031.177  13031.200  0.500  0.267046  47.835733  36.624839  15.829860
  13031.488  13031.500  0.500  0.270400  47.823931  36.493225  15.721377
  13031.784  13031.800  0.500  0.274202  47.827090  36.357113  15.608599
  13032.095  13032.100  0.500  0.278153  47.818861  36.207548  15.487597
  13032.399  13032.400  0.500  0.282862  47.816291  36.035506  15.352510
  13032.680  13032.700  0.500  0.287481  47.811591  35.865897  15.215540
  13032.999  13033.000  0.500  0.293017  47.802743  35.661295  15.051362
  13033.288  13033.300  0.500  0.298532  47.805625  35.467289  14.895646
  13033.592  13033.600  0.500  0.304496  47.794816  35.248450  14.720674
  13033.881  13033.900  0.500  0.310527  47.791965  35.034412  14.545447
  13034.185  13034.200  0.500  0.317104  47.785429  34.799988  14.352065
  13034.481  13034.500  0.500  0.323559  47.784738  34.575565  14.161746
  13034.778  13034.800  0.500  0.329633  47.776103  34.359980  13.976419
  13035.082  13035.100  0.500  0.335843  47.774101  34.145827  13.786883
  13035.356  13035.400  0.500  0.341273  47.772513  33.959804  13.607362
  13035.689  13035.700  0.500  0.346768  47.765672  33.768856  13.412422
  13035.979  13036.000  0.500  0.351150  47.760890  33.617837  13.243534
  13036.282  13036.300  0.500  0.355317  47.757206  33.475461  13.067181
  13036.572  13036.600  0.500  0.358417  47.753203  33.369065  12.911879
  13036.890  13036.900  0.500  0.361070  47.745747  33.275446  12.750590
  13037.180  13037.200  0.500  0.362770  47.740215  33.215072  12.614519
  13037.484  13037.500  0.500  0.364085  47.734190  33.167259  12.472157
  13037.780  13037.800  0.500  0.365024  47.734623  33.136404  12.345881
  13038.106  13038.100  0.500  0.365543  47.725521  33.112926  12.205308
  13038.388  13038.400  0.500  0.366015  47.721274  33.094352  12.082279
  13038.692  13038.700  0.500  0.366526  47.720510  33.076916  11.948886
  13038.996  13039.000  0.500  0.367163  47.712041  33.049976  11.821067
  13039.301  13039.300  0.500  0.368144  47.707635  33.014528  11.677886
  13039.590  13039.600  0.500  0.369448  47.709376  32.972685  11.536367
  13039.901  13039.900  0.500  0.371246  47.701537  32.908063  11.376316
  13040.198  13040.200  0.500  0.373683  47.694239  32.822933  11.213878
  13040.502  13040.500  0.500  0.376838  47.693006  32.718691  11.028028
  13040.806  13040.800  0.500  0.380329  47.685472  32.599520  10.848690
  13041.088  13041.100  0.500  0.384710  47.678897  32.452538  10.654825
  13041.400  13041.400  0.500  0.389956  47.677114  32.281552  10.446649
  13041.682  13041.700  0.500  0.395344  47.676197  32.107443  10.240753
  13041.986  13042.000  0.500  0.401700  47.669072  31.899255  10.025223
  13042.275  13042.300  0.500  0.408657  47.665351  31.675633  9.808378
  13042.587  13042.600  0.500  0.416713  47.660874  31.418542  9.578165
  13042.884  13042.900  0.500  0.425508  47.657025  31.140908  9.347954
  13043.181  13043.200  0.500  0.435203  47.652512  30.837520  9.112834
  13043.478  13043.500  0.500  0.445151  47.640834  30.524798  8.890223
  13043.804  13043.800  0.500  0.456870  47.639921  30.168574  8.647311
  13044.079  13044.100  0.500  0.468045  47.637595  29.831877  8.433284
  13044.405  13044.400  0.500  0.481511  47.629343  29.427744  8.195918
  13044.695  13044.700  0.500  0.493900  47.626701  29.063791  7.992375
  13044.999  13045.000  0.500  0.507950  47.621027  28.654913  7.774349
  13045.296  13045.300  0.500  0.521362  47.616997  28.270763  7.577284
  13045.616  13045.600  0.500  0.535424  47.612302  27.873238  7.376794
  13045.890  13045.900  0.500  0.548051  47.605097  27.519332  7.204718
  13046.217  13046.200  0.500  0.562329  47.600933  27.126820  7.017636
  13046.506  13046.500  0.500  0.573940  47.594624  26.810122  6.867202
  13046.826  13046.800  0.500  0.586044  47.595790  26.488222  6.716246
  13047.101  13047.100  0.500  0.595932  47.580775  26.219337  6.592876
  13047.412  13047.400  0.500  0.605934  47.566878  25.950815  6.466466
  13047.687  13047.700  0.500  0.613993  47.551931  25.734429  6.367628
  13047.999  13048.000  0.500  0.621985  47.527056  25.516207  6.268744
  13048.281  13048.300  0.500  0.628299  47.515155  25.349257  6.194258
  13048.586  13048.600  0.500  0.634718  47.500085  25.179071  6.117958
  13048.876  13048.900  0.500  0.639841  47.481478  25.040608  6.061100
  13049.188  13049.200  0.500  0.645008  47.478203  24.909846  6.007142
  13049.485  13049.500  0.500  0.649315  47.476925  24.802107  5.965434
  13049.804  13049.800  0.500  0.653955  47.477238  24.687463  5.924396
  13050.094  13050.100  0.500  0.658177  47.486892  24.588446  5.892441
  13050.406  13050.400  0.500  0.662307  47.496096  24.491863  5.862825
  13050.673  13050.700  0.500  0.666347  47.506214  24.398312  5.838109
  13051.008  13051.000  0.500  0.670949  47.511537  24.288998  5.810319
  13051.298  13051.300  0.500  0.675452  47.516446  24.182377  5.785564
  13051.602  13051.600  0.500  0.680284  47.516831  24.066008  5.760377
  13051.892  13051.900  0.500  0.685037  47.513266  23.950081  5.735870
  13052.227  13052.200  0.500  0.690542  47.505414  23.814668  5.706987
  13052.509  13052.500  0.500  0.695957  47.506893  23.686796  5.678173
  13052.806  13052.800  0.500  0.701977  47.504135  23.543265  5.647463
  13053.096  13053.100  0.500  0.707845  47.498341  23.402673  5.616637
  13053.408  13053.400  0.500  0.714369  47.496778  23.249723  5.581688
  13053.713  13053.700  0.500  0.720959  47.491772  23.094558  5.546230
  13053.996  13054.000  0.500  0.727673  47.488737  22.938560  5.509099
  13054.300  13054.300  0.500  0.734218  47.481006  22.785208  5.470728
  13054.598  13054.600  0.500  0.741496  47.477591  22.618366  5.430625
  13054.903  13054.900  0.500  0.748306  47.467754  22.460203  5.389160
  13055.200  13055.200  0.500  0.755143  47.469506  22.307974  5.347036
  13055.490  13055.500  0.500  0.761822  47.464802  22.157277  5.307172
  13055.787  13055.800  0.500  0.768406  47.458606  22.009007  5.264313
  13056.092  13056.100  0.500  0.774688  47.452478  21.868355  5.222375
  13056.397  13056.400  0.500  0.780938  47.453409  21.732530  5.182012
  13056.695  13056.700  0.500  0.786683  47.444575  21.604023  5.139886
  13057.000  13057.000  0.500  0.791896  47.443822  21.491348  5.100723
  13057.312  13057.300  0.500  0.797416  47.433881  21.368553  5.058394
  13057.602  13057.600  0.500  0.802319  47.429727  21.262182  5.019203
  13057.907  13057.900  0.500  0.807156  47.427599  21.158645  4.976553
  13058.205  13058.200  0.500  0.811670  47.427964  21.063514  4.937695
  13058.517  13058.500  0.500  0.816226  47.417766  20.963252  4.894669
  13058.807  13058.800  0.500  0.820057  47.415309  20.882015  4.856349
  13059.112  13059.100  0.500  0.824347  47.415119  20.792544  4.812862
  13059.402  13059.400  0.500  0.827819  47.404357  20.715770  4.776153
  13059.722  13059.700  0.500  0.831829  47.403305  20.632410  4.733133
  13060.005  13060.000  0.500  0.835005  47.397674  20.564542  4.697840
  13060.198  13060.200  0.500  0.837187  47.396478  20.519195  4.670158
  13061.218  13061.190  0.500  0.847545  47.383206  20.302068  4.554942
  13062.193  13062.190  0.500  0.856452  47.370482  20.116643  4.464325
  13063.198  13063.210  0.500  0.865819  47.360487  19.924880  4.395095
  13064.255  13064.260  0.500  0.874914  47.342886  19.737143  4.347848
  13065.335  13065.320  0.500  0.882395  47.330715  19.585013  4.324308
  13066.430  13066.400  0.500  0.886170  47.324220  19.508529  4.325954
  13067.517  13067.500  0.500  0.884450  47.307248  19.535107  4.356469
  13068.620  13068.620  0.500  0.878542  47.293946  19.645333  4.407069
  13069.753  13069.760  0.500  0.869663  47.277731  19.813751  4.466738
  13070.938  13070.910  0.500  0.859037  47.234257  20.007001  4.521219
  13072.108  13072.090  0.500  0.848843  47.181548  20.189437  4.566206
  13073.301  13073.280  0.500  0.839151  47.186061  20.388017  4.608273
  13074.516  13074.500  0.500  0.830030  47.209803  20.585181  4.648873
  13075.739  13075.730  0.500  0.821198  47.191631  20.759794  4.689052
  13076.970  13076.980  0.500  0.812963  47.170941  20.922287  4.724808
  13078.276  13078.250  0.500  0.805557  47.157347  21.071733  4.757730
  13079.567  13079.540  0.500  0.799413  47.186973  21.214931  4.783474
  13080.881  13080.850  0.500  0.794100  47.228395  21.346669  4.801042
  13082.195  13082.180  0.500  0.789070  47.215911  21.448631  4.806299
  13083.524  13083.530  0.500  0.783921  47.204881  21.554323  4.808053
  13084.898  13084.900  0.500  0.778804  47.181659  21.654241  4.805324
  13086.288  13086.280  0.500  0.774310  47.164752  21.743982  4.803935
  13087.685  13087.690  0.500  0.771155  47.150381  21.806041  4.800817
  13089.120  13089.110  0.500  0.769389  47.132193  21.836167  4.801382
  13090.540  13090.550  0.500  0.769180  47.118643  21.834448  4.804566
  13092.021  13092.010  0.500  0.770346  47.076620  21.789550  4.805662
  13093.486  13093.490  0.500  0.772610  47.008927  21.709009  4.802913
  13095.012  13094.990  0.500  0.776105  47.025429  21.640870  4.804701
  13096.516  13096.510  0.500  0.780128  47.045655  21.563249  4.802082
  13098.051  13098.050  0.500  0.784499  47.023958  21.459293  4.791273
  13099.570  13099.610  0.500  0.789463  47.008775  21.346154  4.776834
  13101.172  13101.180  0.500  0.794085  46.986221  21.237509  4.761491
  13102.760  13102.780  0.500  0.798237  46.955278  21.135592  4.747947
  13104.386  13104.390  0.500  0.802115  46.932559  21.043611  4.734006
  13106.012  13106.030  0.500  0.805859  46.873478  20.938577  4.712793
  13107.638  13107.680  0.500  0.809306  46.892694  20.875070  4.700220
  13109.782  13109.350  0.500  0.812329  46.883427  20.807949  4.681974
  13110.975  13111.040  0.500  0.813925  46.865998  20.767040  4.667622
  13112.812  13112.750  0.500  0.815525  46.840305  20.722489  4.646584
  13114.411  13114.480  0.500  0.816718  46.821120  20.689293  4.630346
  13116.287  13116.230  0.500  0.818438  46.775506  20.633619  4.608016
  13117.991  13117.990  0.500  0.820231  46.704693  20.565480  4.586877
  13119.740  13119.780  0.500  0.822238  46.741012  20.540191  4.578179
  13121.573  13121.580  0.500  0.824433  46.730646  20.490630  4.567504
  13123.399  13123.410  0.500  0.825919  46.710272  20.451281  4.563739
  13125.248  13125.250  0.500  0.826789  46.683133  20.421626  4.565969
  13127.082  13127.110  0.500  0.826906  46.661749  20.409883  4.571713
  13128.992  13128.990  0.500  0.826496  46.646522  20.411585  4.581379
  13130.850  13130.890  0.500  0.825656  46.614548  20.414737  4.591758
  13132.791  13132.810  0.500  0.823159  46.573012  20.447536  4.604834
  13134.717  13134.750  0.500  0.819700  46.574894  20.519211  4.626108
  13136.720  13136.710  0.500  0.814180  46.548716  20.621191  4.651265
  13138.678  13138.680  0.500  0.808537  46.530069  20.729578  4.679262
  13140.697  13140.680  0.500  0.802615  46.508999  20.843269  4.707471
  13142.686  13142.690  0.500  0.797222  46.483589  20.944529  4.732567
  13144.714  13144.720  0.500  0.792302  46.457412  21.035966  4.752700
  13146.750  13146.780  0.500  0.788428  46.435727  21.107761  4.770573
  13148.846  13148.850  0.500  0.785275  46.409566  21.162506  4.784181
  13150.929  13150.940  0.500  0.782834  46.379964  21.200693  4.794967
  13153.065  13153.050  0.500  0.781250  46.341367  21.216625  4.798842
  13155.194  13155.180  0.500  0.780726  46.328838  21.222005  4.800566
  13157.316  13157.320  0.500  0.781273  46.310239  21.201893  4.797449
  13159.477  13159.490  0.500  0.782322  46.284086  21.167702  4.791382
  13161.661  13161.680  0.500  0.783823  46.256625  21.123402  4.782845
  13163.876  13163.880  0.500  0.785289  46.228568  21.079673  4.776643
  13166.107  13166.100  0.500  0.786371  46.194568  21.041392  4.769690
  13168.346  13168.350  0.500  0.787155  46.129908  20.995460  4.762364
  13170.624  13170.610  0.500  0.787662  46.148371  20.993227  4.764708
  13172.880  13172.890  0.500  0.787975  46.125657  20.976323  4.763489
  13175.174  13175.190  0.500  0.788499  46.098998  20.953223  4.759975
  13177.508  13177.510  0.500  0.789099  46.069762  20.927361  4.757665
  13179.857  13179.850  0.500  0.790046  46.039902  20.894011  4.752793
  13182.215  13182.200  0.500  0.791222  46.009878  20.855852  4.744706
  13184.596  13184.580  0.500  0.792508  45.981673  20.816271  4.739578
  13186.955  13186.970  0.500  0.793708  45.955901  20.779643  4.733719
  13189.369  13189.390  0.500  0.794895  45.923330  20.740283  4.726727
  13191.813  13191.820  0.500  0.795873  45.897763  20.708476  4.723509
  13194.274  13194.270  0.500  0.796348  45.869463  20.685876  4.722321
  13196.759  13196.750  0.500  0.796535  45.837185  20.667467  4.723030
  13199.252  13199.240  0.500  0.796248  45.802109  20.657577  4.724178
  13201.738  13201.750  0.500  0.795714  45.777041  20.657292  4.728033
  13204.264  13204.270  0.500  0.794722  45.735041  20.658819  4.732580
  13206.805  13206.820  0.500  0.793263  45.711920  20.678526  4.738525
  13209.401  13209.390  0.500  0.791722  45.685255  20.698344  4.746995
  13211.983  13211.970  0.500  0.789822  45.648562  20.721060  4.754326
  13214.604  13214.580  0.500  0.788582  45.619033  20.733339  4.760037
  13217.203  13217.200  0.500  0.787542  45.584786  20.739338  4.763080
  13219.856  13219.850  0.500  0.786648  45.539379  20.737210  4.765105
  13222.518  13222.510  0.500  0.785761  45.515377  20.744665  4.767326
  13225.197  13225.190  0.500  0.784600  45.459506  20.743274  4.769092
  13227.892  13227.890  0.500  0.783063  45.436373  20.764598  4.775391
  13230.603  13230.610  0.500  0.781429  45.413437  20.788070  4.781284
  13233.323  13233.350  0.500  0.780148  45.387615  20.802881  4.785559
  13236.097  13236.100  0.500  0.779456  45.355171  20.802406  4.788696
  13238.889  13238.880  0.500  0.779152  45.322425  20.793688  4.788497
  13241.658  13241.670  0.500  0.778796  45.285979  20.784384  4.788431
  13244.490  13244.490  0.500  0.778225  45.247317  20.778488  4.790218
  13247.323  13247.320  0.500  0.776855  45.206090  20.788016  4.794888
  13250.165  13250.170  0.500  0.775246  45.165778  20.802934  4.801136
  13253.069  13253.050  0.500  0.773374  45.119780  20.820687  4.809800
  13255.921  13255.940  0.500  0.771730  45.079018  20.836089  4.816225
  13258.851  13258.850  0.500  0.770664  45.032263  20.836693  4.820036
  13261.790  13261.770  0.500  0.770425  44.977802  20.816468  4.817917
  13264.723  13264.720  0.500  0.770611  44.915452  20.783739  4.814462
  13267.695  13267.690  0.500  0.771446  44.829993  20.726882  4.802626
  13270.669  13270.670  0.500  0.772414  44.678882  20.637020  4.785557
  13273.682  13273.680  0.500  0.773375  44.373781  20.476415  4.750529
  13276.736  13276.700  0.500  0.774168  44.229173  20.393500  4.734320
  13279.767  13279.750  0.500  0.775026  44.253354  20.387152  4.734553
  13282.800  13282.810  0.500  0.775813  44.213722  20.352885  4.728630
  13285.912  13285.890  0.500  0.776209  44.121057  20.302172  4.719218
  13289.017  13288.990  0.500  0.776225  44.041282  20.265149  4.713550
  13292.101  13292.110  0.500  0.775880  44.011164  20.258276  4.713924
  13295.247  13295.250  0.500  0.775189  44.030363  20.281127  4.722030
  13298.411  13298.400  0.500  0.774298  43.982239  20.277006  4.724005
  13301.600  13301.580  0.500  0.773305  43.907002  20.262430  4.724175
  13304.766  13304.770  0.500  0.772379  43.870944  20.264563  4.728025
  13307.997  13307.990  0.500  0.771287  43.871531  20.286971  4.737136
  13311.213  13311.220  0.500  0.770349  43.856028  20.298819  4.743899
  13314.485  13314.470  0.500  0.769290  43.826243  20.306531  4.751224
  13317.751  13317.750  0.500  0.768173  43.796484  20.315426  4.756729
  13321.057  13321.040  0.500  0.766860  43.739609  20.315706  4.761140
  13324.365  13324.350  0.500  0.765620  43.688155  20.316990  4.764942
  13327.705  13327.670  0.500  0.764451  43.627987  20.312730  4.767766
  13331.032  13331.020  0.500  0.763647  43.591054  20.311856  4.772632
  13334.423  13334.390  0.500  0.762921  43.588160  20.325262  4.777046
  13337.792  13337.770  0.500  0.762786  43.564706  20.317074  4.779938
  13341.193  13341.180  0.500  0.762446  43.545264  20.314906  4.782756
  13344.605  13344.600  0.500  0.761743  43.512226  20.313775  4.786604
  13348.064  13348.050  0.500  0.760522  43.481696  20.324313  4.793039
  13351.518  13351.510  0.500  0.758879  43.466936  20.350822  4.803324
  13354.989  13354.990  0.500  0.757248  43.434923  20.369029  4.810420
  13358.501  13358.490  0.500  0.755649  43.374626  20.373318  4.815339
  13362.023  13362.010  0.500  0.754379  43.357922  20.391346  4.823494
  13365.562  13365.550  0.500  0.753620  43.303304  20.381115  4.826312
  13369.118  13369.100  0.500  0.753184  43.254833  20.367179  4.826214
  13372.708  13372.680  0.500  0.752987  43.205605  20.348022  4.826045
  13376.292  13376.280  0.500  0.752874  43.175072  20.335936  4.828613
  13379.885  13379.890  0.500  0.752609  43.132778  20.321387  4.828524
  13383.559  13383.520  0.500  0.752228  43.094063  20.310893  4.831254
  13387.195  13387.180  0.500  0.751685  43.066899  20.309123  4.836036
  13390.842  13390.850  0.500  0.751013  43.025168  20.303074  4.839627
  13394.545  13394.540  0.500  0.750241  42.987091  20.300767  4.842663
  13398.297  13398.250  0.500  0.749663  42.947049  20.293590  4.845321
  13402.013  13401.980  0.500  0.749053  42.905892  20.286517  4.848641
  13405.738  13405.720  0.500  0.748660  42.858685  20.272150  4.849868
  13409.512  13409.490  0.500  0.747998  42.842129  20.277734  4.855406
  13413.305  13413.280  0.500  0.747391  42.810524  20.275079  4.859134
  13417.083  13417.080  0.500  0.746649  42.768696  20.270319  4.862049
  13420.943  13420.910  0.500  0.746013  42.719214  20.259750  4.863220
  13424.773  13424.750  0.500  0.745251  42.680301  20.256718  4.868947
  13428.621  13428.610  0.500  0.744553  42.574000  20.220381  4.862420
  13432.503  13432.490  0.500  0.743880  42.587477  20.240402  4.873044
  13436.419  13436.390  0.500  0.742967  42.547612  20.239918  4.877954
  13440.321  13440.310  0.500  0.741923  42.497869  20.237371  4.880860
  13444.257  13444.250  0.500  0.740979  42.455856  20.236464  4.886182
  13448.267  13448.210  0.500  0.739910  42.401937  20.232366  4.890259
  13452.184  13452.180  0.500  0.739193  42.376722  20.234852  4.897283
  13456.183  13456.180  0.500  0.738378  42.332142  20.230048  4.900458
  13460.223  13460.190  0.500  0.737378  42.274648  20.222773  4.903317
  13464.250  13464.230  0.500  0.736182  42.234168  20.227587  4.909783
  13468.311  13468.280  0.500  0.734875  42.196044  20.235768  4.917771
  13472.375  13472.350  0.500  0.733366  42.148582  20.243524  4.924615
  13476.433  13476.440  0.500  0.732050  42.099485  20.246562  4.930248
  13480.565  13480.550  0.500  0.730846  41.931971  20.190307  4.921512
  13484.700  13484.680  0.500  0.729747  42.008261  20.249288  4.940377
  13488.837  13488.830  0.500  0.728801  42.005465  20.267107  4.949990
  13493.009  13492.990  0.500  0.727985  41.914178  20.239566  4.949143
  13497.207  13497.180  0.500  0.727385  41.912618  20.250958  4.955258
  13501.400  13501.380  0.500  0.726975  41.867342  20.237382  4.957445
  13505.643  13505.610  0.500  0.726362  41.809452  20.221785  4.958585
  13509.865  13509.850  0.500  0.725746  41.777515  20.218790  4.963814
  13514.113  13514.110  0.500  0.724962  41.716661  20.205174  4.964076
  13518.428  13518.390  0.500  0.724128  41.654373  20.191829  4.966251
  13522.706  13522.690  0.500  0.723424  41.796016  20.274767  4.991240
  13527.051  13527.010  0.500  0.722552  41.726649  20.258767  4.992183
  13531.374  13531.350  0.500  0.721701  41.679097  20.252911  4.996222
  13535.733  13535.710  0.500  0.720913  41.571248  20.216424  4.993075
  13540.118  13540.090  0.500  0.720146  41.167302  20.035354  4.955394
  13544.506  13544.480  0.500  0.719059  41.600239  20.268066  5.016820
  13548.928  13548.900  0.500  0.717887  41.552357  20.268477  5.021833
  13553.378  13553.330  0.500  0.716796  41.478980  20.254778  5.023457
  13557.791  13557.780  0.500  0.715797  40.817795  19.951840  4.954209
  13562.287  13562.250  0.500  0.714831  41.406149  20.258981  5.037141
  13566.754  13566.740  0.500  0.713888  41.140024  20.147767  5.014540
  13571.288  13571.250  0.500  0.713011  41.292502  20.240180  5.043197
  13575.825  13575.780  0.500  0.712412  40.695230  19.959364  4.979950
  13580.341  13580.330  0.500  0.711514  41.227095  20.238405  5.053901
  13584.925  13584.900  0.500  0.710867  41.166188  20.221577  5.054782
  13589.503  13589.480  0.500  0.710149  41.089423  20.198357  5.055363
  13594.109  13594.090  0.500  0.709139  40.548518  19.952618  4.997509
  13598.759  13598.710  0.500  0.708414  41.052069  20.215053  5.070161
  13603.379  13603.360  0.500  0.707250  40.979813  20.202972  5.072996
  13608.067  13608.020  0.500  0.706274  40.936689  20.201416  5.078330
  13612.726  13612.700  0.500  0.704802  40.862848  20.194685  5.082818
  13617.429  13617.400  0.500  0.703395  40.839997  20.211814  5.093865
  13622.152  13622.120  0.500  0.701668  40.770313  20.212203  5.098013
  13626.877  13626.860  0.500  0.700571  40.742216  20.220439  5.106988
  13631.647  13631.610  0.500  0.699062  40.662794  20.211501  5.109210
  13636.403  13636.390  0.500  0.698035  40.649722  20.225755  5.120143
  13641.237  13641.190  0.500  0.696810  40.588961  20.220281  5.124050
  13646.049  13646.000  0.500  0.695905  40.526645  20.207508  5.125863
  13650.848  13650.830  0.500  0.695142  40.428016  20.173729  5.124143
  13655.741  13655.690  0.500  0.694348  40.448274  20.199872  5.138734
  13660.580  13660.560  0.500  0.693480  40.401464  20.194007  5.142901
  13665.487  13665.450  0.500  0.692564  40.329633  20.176577  5.144383
  13670.406  13670.360  0.500  0.691662  40.287903  20.173890  5.149318
  13675.313  13675.290  0.500  0.690751  40.235953  20.166241  5.154348
  13680.272  13680.230  0.500  0.690031  40.177842  20.151611  5.157182
  13685.227  13685.200  0.500  0.689217  40.127816  20.142919  5.161977
  13690.234  13690.190  0.500  0.688248  40.065278  20.131031  5.163595
  13695.245  13695.190  0.500  0.687291  40.016650  20.125843  5.170600
  13700.244  13700.220  0.500  0.686210  39.966333  20.122282  5.175779
  13705.336  13705.260  0.500  0.684982  39.907698  20.117435  5.181907
  13710.334  13710.320  0.500  0.683701  39.861504  20.119911  5.187541
  13715.450  13715.400  0.500  0.682283  39.813144  20.124012  5.194941
  13720.529  13720.500  0.500  0.681015  39.756678  20.120969  5.200326
  13725.669  13725.620  0.500  0.679678  39.694796  20.116544  5.205530
  13730.797  13730.760  0.500  0.678392  39.647911  20.118635  5.212938
  13735.937  13735.920  0.500  0.677490  39.595679  20.110255  5.216406
  13741.164  13741.100  0.500  0.676678  39.536363  20.096443  5.218673
  13746.345  13746.290  0.500  0.675621  39.486061  20.092110  5.225388
  13751.546  13751.510  0.500  0.674773  39.411072  20.070959  5.226318
  13756.801  13756.740  0.500  0.673745  39.350179  20.060548  5.229190
  13762.027  13761.990  0.500  0.672626  39.313304  20.064202  5.238281
  13767.306  13767.260  0.500  0.671616  39.253611  20.053979  5.242695
  13772.606  13772.550  0.500  0.670448  39.196932  20.048429  5.247072
  13777.911  13777.860  0.500  0.669200  39.126012  20.037143  5.251747
  13783.244  13783.190  0.500  0.668092  39.072731  20.032035  5.255839
  13788.590  13788.540  0.500  0.667083  39.018299  20.024321  5.261857
  13793.965  13793.910  0.500  0.665820  38.983348  20.031665  5.269116
  13799.378  13799.290  0.500  0.664528  38.914631  20.022222  5.273976
  13804.669  13804.700  0.500  0.663322  38.848955  20.012545  5.278324
  13810.115  13810.120  0.500  0.662090  38.787870  20.005713  5.283655
  13815.574  13815.570  0.500  0.660699  38.709457  19.993051  5.286005
  13821.037  13821.030  0.500  0.659492  38.683664  20.003872  5.298160
  13826.513  13826.510  0.500  0.658128  38.625407  20.001002  5.302678
  13832.001  13832.010  0.500  0.656805  38.568273  19.997854  5.309368
  13837.553  13837.530  0.500  0.655707  38.494173  19.981359  5.311949
  13843.067  13843.070  0.500  0.654584  38.446442  19.979011  5.317924
  13848.644  13848.620  0.500  0.653574  38.380177  19.964725  5.319578
  13854.251  13854.200  0.500  0.652718  38.292270  19.936065  5.322351
  13859.854  13859.800  0.500  0.651695  38.247272  19.933021  5.327511
  13865.470  13865.410  0.500  0.650588  38.171770  19.915695  5.329744
  13871.091  13871.050  0.500  0.649604  38.090881  19.893069  5.332864
  13876.733  13876.700  0.500  0.648382  38.002975  19.871420  5.332187
  13882.413  13882.370  0.500  0.647233  37.847738  19.813002  5.324380
  13888.098  13888.060  0.500  0.645925  37.692182  19.757386  5.316241
