# XDI/1.0 BlueSky/1.10.0 BMM/2023-1.0-py310-tiled
# Beamline.name: BMM (06BM) -- Beamline for Materials Measurement (NIST)
# Beamline.xray_source: NSLS-II three-pole wiggler
# Beamline.collimation: paraboloid mirror, 5 nm Rh on 30 nm Pt
# Beamline.focusing: not in use
# Beamline.harmonic_rejection: flat mirror, Si stripe, pitch = 7.0 mrad relative to beam
# Beamline.software: Bluesky 1.10.0, Ophyd 1.7.0, DataBroker 2.0.0b13, Python 3.10.8, 2023-1.0-py310-tiled
# Detector.I0: 10 cm N2
# Detector.I1: 25 cm N2
# Detector.I2: 25 cm N2
# Element.symbol: Fe
# Element.edge: K
# Element.reference: Fe
# Element.reference_material: Fe foil
# Facility.name: NSLS-II
# Facility.energy: 3.0
# Facility.current: 400.0
# Facility.mode: top-off
# Facility.GUP: 123456
# Facility.SAF: 301027
# Facility.cycle: 2023-2
# Mono.name: Si(111)
# Mono.d_spacing: 3.1351860
# Mono.encoder_resolution: 0.0000050 deg/ct
# Mono.angle_offset: 16.0754326 deg
# Mono.scan_mode: pseudo channel cut
# Mono.scan_type: step
# Mono.direction: forward in energy
# Sample.name: Ca2Al2Fe(SiO4)(Si2O7)OOH
# Sample.prep: PEG pellet
# Sample.x: 142.329 mm
# Sample.y: 114.126 mm
# Sample.SDD_position: 205.000 mm
# Scan.experimenters: Bruce Ravel
# Scan.edge_energy: 7112.0
# Scan.start_time: 2023-05-05T19:35:02
# Scan.end_time: 2023-05-05T19:43:18
# Scan.transient_id: 74591
# Scan.uid: 3e991538-8f09-40fc-ab4e-0427df98460a
# Scan.plot_hint: ln(I0/It)  --  ln($5/$6)
# Column.1: energy eV
# Column.2: requested_energy eV
# Column.3: measurement_time seconds
# Column.4: xmu 
# Column.5: I0 nA
# Column.6: It nA
# Column.7: Ir nA
# ///////////
# courtesy Martin Stennett, University of Sheffield
# -----------
# energy  requested_energy  measurement_time  xmu  I0  It  Ir
  6912.005  6912.000  0.500  1.319997  154.337342  41.229070  7.743522
  6922.009  6922.000  0.500  1.311794  154.156088  41.519860  7.853366
  6932.036  6932.000  0.500  1.304101  154.122393  41.831353  7.966454
  6942.017  6942.000  0.500  1.295456  154.132664  42.197344  8.093904
  6952.002  6952.000  0.500  1.287212  154.089229  42.534668  8.214488
  6962.014  6962.000  0.500  1.279038  154.055154  42.874297  8.338419
  6972.018  6972.000  0.500  1.271142  154.057329  43.214798  8.462398
  6982.008  6982.000  0.500  1.263057  154.002307  43.550057  8.587720
  6992.018  6992.000  0.500  1.255061  153.979013  43.893031  8.712244
  7002.011  7002.000  0.500  1.247303  153.923359  44.218861  8.835434
  7012.008  7012.000  0.500  1.239493  153.850235  44.544402  8.959917
  7022.012  7022.000  0.500  1.231568  153.788993  44.880940  9.087722
  7032.008  7032.000  0.500  1.223807  153.711960  45.207952  9.210226
  7042.006  7042.000  0.500  1.216668  153.631584  45.508072  9.329681
  7052.007  7052.000  0.500  1.208801  153.524240  45.835435  9.452710
  7062.008  7062.000  0.500  1.201503  152.780894  45.947606  9.529232
  7072.009  7072.000  0.500  1.193924  153.274803  46.446821  9.679331
  7081.984  7082.000  0.500  1.186132  153.228226  46.795936  9.788213
  7083.987  7084.000  0.500  1.184571  153.007566  46.801537  9.792834
  7085.985  7086.000  0.500  1.183061  153.127935  46.909170  9.818184
  7087.992  7088.000  0.500  1.181849  153.130380  46.966807  9.831524
  7089.990  7090.000  0.500  1.180290  153.096171  47.029538  9.845229
  7091.997  7092.000  0.500  1.178832  153.068775  47.089738  9.853620
  7093.978  7094.000  0.500  1.177277  152.991602  47.139231  9.857566
  7096.187  7096.000  0.500  1.175803  152.987455  47.207511  9.859956
  7098.240  7098.000  0.500  1.174573  152.980495  47.263452  9.852450
  7099.984  7100.000  0.500  1.173383  152.981328  47.320007  9.839407
  7101.988  7102.000  0.500  1.171668  152.941993  47.389049  9.812478
  7102.288  7102.300  0.500  1.171734  152.895042  47.371371  9.802172
  7102.585  7102.600  0.500  1.171359  152.877892  47.383828  9.795683
  7102.884  7102.900  0.500  1.170993  152.888022  47.404289  9.791062
  7103.190  7103.200  0.500  1.170965  152.865325  47.398583  9.780606
  7103.483  7103.500  0.500  1.170788  152.831983  47.396632  9.770178
  7103.781  7103.800  0.500  1.170903  152.820797  47.387698  9.757614
  7104.087  7104.100  0.500  1.170282  152.801139  47.411052  9.747525
  7104.386  7104.400  0.500  1.170184  152.814736  47.419895  9.736688
  7104.688  7104.700  0.500  1.170017  152.802142  47.423919  9.725412
  7104.985  7105.000  0.500  1.169676  152.768970  47.429783  9.711114
  7105.285  7105.300  0.500  1.169557  152.759843  47.432620  9.693359
  7105.584  7105.600  0.500  1.169436  152.731102  47.429411  9.674566
  7105.888  7105.900  0.500  1.169656  152.718802  47.415195  9.651137
  7106.188  7106.200  0.500  1.169261  152.741762  47.441042  9.633703
  7106.486  7106.500  0.500  1.168982  152.729634  47.450532  9.611518
  7106.792  7106.800  0.500  1.168769  152.715992  47.456382  9.585890
  7107.092  7107.100  0.500  1.168577  152.704985  47.462073  9.555060
  7107.389  7107.400  0.500  1.168251  152.712751  47.479937  9.524945
  7107.687  7107.700  0.500  1.168030  152.702461  47.487272  9.485950
  7107.989  7108.000  0.500  1.168173  152.675658  47.472126  9.436325
  7108.289  7108.300  0.500  1.167891  152.674393  47.485145  9.383010
  7108.591  7108.600  0.500  1.167803  152.663871  47.486008  9.320770
  7108.888  7108.900  0.500  1.167730  152.653318  47.486219  9.247151
  7109.191  7109.200  0.500  1.167448  152.611008  47.486434  9.153312
  7109.495  7109.500  0.500  1.167181  152.618167  47.501333  9.034907
  7109.793  7109.800  0.500  1.167034  152.613969  47.507016  8.879414
  7110.093  7110.100  0.500  1.166978  152.592706  47.503053  8.661689
  7110.395  7110.400  0.500  1.166807  152.582823  47.508093  8.355959
  7110.697  7110.700  0.500  1.166650  152.571844  47.512168  7.918838
  7110.993  7111.000  0.500  1.166618  152.526603  47.499584  7.356838
  7111.302  7111.300  0.500  1.166612  152.862804  47.604560  6.678201
  7111.591  7111.600  0.500  1.166702  153.013098  47.647082  5.995203
  7111.891  7111.900  0.500  1.166798  152.989414  47.635132  5.349354
  7112.189  7112.200  0.500  1.167133  152.940179  47.603865  4.832702
  7112.490  7112.500  0.500  1.167801  152.898753  47.559204  4.447487
  7112.792  7112.800  0.500  1.168656  152.868315  47.509095  4.158076
  7113.097  7113.100  0.500  1.169492  152.851161  47.464073  3.922913
  7113.395  7113.400  0.500  1.170460  152.823906  47.409681  3.718425
  7113.699  7113.700  0.500  1.171012  152.820240  47.382391  3.534867
  7114.000  7114.000  0.500  1.170843  152.811850  47.387788  3.370457
  7114.300  7114.300  0.500  1.170922  152.820630  47.386737  3.227186
  7114.598  7114.600  0.500  1.170040  152.777729  47.415273  3.111032
  7114.901  7114.900  0.500  1.169876  152.785029  47.425300  3.019086
  7115.201  7115.200  0.500  1.169187  152.772785  47.454169  2.953287
  7115.500  7115.500  0.500  1.168209  152.759792  47.496560  2.907312
  7115.802  7115.800  0.500  1.167348  152.767060  47.539759  2.873964
  7116.092  7116.100  0.500  1.166448  152.733840  47.572188  2.849887
  7116.393  7116.400  0.500  1.165836  152.703783  47.591976  2.823482
  7116.698  7116.700  0.500  1.165675  152.691445  47.595801  2.784511
  7116.998  7117.000  0.500  1.165710  152.669350  47.587214  2.726385
  7117.295  7117.300  0.500  1.165689  152.677492  47.590761  2.642974
  7117.598  7117.600  0.500  1.165863  152.664063  47.578311  2.529942
  7117.896  7117.900  0.500  1.166008  152.627177  47.559912  2.393021
  7118.199  7118.200  0.500  1.166136  152.581324  47.539552  2.234963
  7118.506  7118.500  0.500  1.166592  152.601350  47.524108  2.073423
  7118.805  7118.800  0.500  1.166828  152.575528  47.504825  1.917353
  7119.099  7119.100  0.500  1.167678  152.558878  47.459305  1.771236
  7119.398  7119.400  0.500  1.168473  152.527241  47.411736  1.635735
  7119.701  7119.700  0.500  1.169688  152.537585  47.357380  1.506946
  7119.998  7120.000  0.500  1.171541  152.468683  47.248396  1.382882
  7120.298  7120.300  0.500  1.173481  152.482746  47.161130  1.265679
  7120.593  7120.600  0.500  1.176013  152.497492  47.046422  1.156198
  7120.894  7120.900  0.500  1.179084  152.442317  46.885196  1.055502
  7121.199  7121.200  0.500  1.182966  152.429271  46.699544  0.966294
  7121.498  7121.500  0.500  1.187129  152.383677  46.491625  0.892088
  7121.799  7121.800  0.500  1.192436  152.384105  46.245711  0.828551
  7122.105  7122.100  0.500  1.198889  152.349037  45.937659  0.771508
  7122.397  7122.400  0.500  1.206222  152.368625  45.607893  0.722927
  7122.702  7122.700  0.500  1.214388  152.356048  45.233261  0.679270
  7123.008  7123.000  0.500  1.222236  152.335192  44.873514  0.640821
  7123.301  7123.300  0.500  1.229346  152.330143  44.554097  0.607738
  7123.602  7123.600  0.500  1.234902  152.309995  44.301396  0.579835
  7123.899  7123.900  0.500  1.240181  152.302740  44.066025  0.555117
  7124.200  7124.200  0.500  1.245795  152.271364  43.810308  0.532091
  7124.497  7124.500  0.500  1.251353  152.259553  43.564099  0.511357
  7124.798  7124.800  0.500  1.258455  152.238076  43.249716  0.490680
  7125.093  7125.100  0.500  1.266490  152.211233  42.896047  0.471724
  7125.397  7125.400  0.500  1.275586  152.173089  42.496978  0.452339
  7125.700  7125.700  0.500  1.285405  152.159111  42.077859  0.434175
  7126.002  7126.000  0.500  1.295129  152.117179  41.659215  0.417283
  7126.301  7126.300  0.500  1.305410  152.113638  41.232128  0.400091
  7126.605  7126.600  0.500  1.316126  152.095027  40.787673  0.382952
  7126.902  7126.900  0.500  1.326169  152.054564  40.369330  0.366236
  7127.210  7127.200  0.500  1.335981  152.030020  39.968727  0.348634
  7127.505  7127.500  0.500  1.344705  152.053351  39.627613  0.332164
  7127.802  7127.800  0.500  1.351623  152.012088  39.343754  0.316181
  7128.095  7128.100  0.500  1.357005  151.982122  39.124835  0.300958
  7128.399  7128.400  0.500  1.361448  151.957950  38.945192  0.285621
  7128.701  7128.700  0.500  1.364067  151.917794  38.833102  0.270637
  7128.996  7129.000  0.500  1.365468  151.885959  38.770583  0.256874
  7129.295  7129.300  0.500  1.365707  151.871379  38.757619  0.243721
  7129.597  7129.600  0.500  1.365017  151.817705  38.770643  0.232226
  7129.899  7129.900  0.500  1.363845  151.791449  38.809415  0.222482
  7130.207  7130.200  0.500  1.363063  151.780803  38.837021  0.214216
  7130.502  7130.500  0.500  1.363008  151.777160  38.838250  0.207865
  7130.798  7130.800  0.500  1.364046  151.739061  38.788197  0.203554
  7131.102  7131.100  0.500  1.366739  151.711161  38.676791  0.201037
  7131.402  7131.400  0.500  1.370867  151.700832  38.514837  0.200963
  7131.704  7131.700  0.500  1.376414  151.658352  38.291055  0.203169
  7132.003  7132.000  0.500  1.382650  151.638435  38.047999  0.207304
  7132.297  7132.300  0.500  1.389403  151.607775  37.784315  0.212914
  7132.597  7132.600  0.500  1.396138  151.608052  37.530750  0.219551
  7132.899  7132.900  0.500  1.402453  151.568208  37.284674  0.227479
  7133.198  7133.200  0.500  1.407624  151.575746  37.094225  0.236493
  7133.498  7133.500  0.500  1.411094  151.581087  36.967027  0.246181
  7133.798  7133.800  0.500  1.413236  151.550106  36.880417  0.256217
  7134.098  7134.100  0.500  1.414442  151.603577  36.848938  0.266107
  7134.398  7134.400  0.500  1.414733  151.604340  36.838396  0.275577
  7134.705  7134.700  0.500  1.414117  151.607970  36.862011  0.284535
  7135.005  7135.000  0.500  1.411946  151.614129  36.943605  0.292494
  7135.298  7135.300  0.500  1.408899  151.615689  37.056716  0.300322
  7135.603  7135.600  0.500  1.404060  151.576989  37.226980  0.307714
  7135.899  7135.900  0.500  1.399130  151.552609  37.404959  0.313517
  7136.201  7136.200  0.500  1.393544  151.528644  37.608540  0.318782
  7136.503  7136.500  0.500  1.388230  151.536121  37.810770  0.322510
  7136.799  7136.800  0.500  1.383725  151.528136  37.979497  0.325316
  7136.992  7137.000  0.500  1.380887  151.499963  38.080332  0.326393
  7137.998  7137.990  0.500  1.369480  151.515191  38.521096  0.324472
  7139.007  7138.990  0.500  1.362769  151.510400  38.779231  0.312703
  7140.028  7140.010  0.500  1.358013  151.510477  38.964151  0.298997
  7141.079  7141.060  0.500  1.350733  151.502233  39.246712  0.290919
  7142.145  7142.120  0.500  1.341300  151.497405  39.617400  0.291797
  7143.190  7143.200  0.500  1.332414  151.450848  39.958735  0.298850
  7144.287  7144.300  0.500  1.324859  151.438528  40.258493  0.306271
  7145.413  7145.420  0.500  1.320620  151.429452  40.427061  0.306337
  7146.557  7146.560  0.500  1.319615  151.415698  40.464071  0.295511
  7147.707  7147.710  0.500  1.319381  151.392947  40.467429  0.277453
  7148.888  7148.890  0.500  1.317158  151.379955  40.554013  0.259457
  7150.083  7150.080  0.500  1.312512  151.395256  40.747011  0.248275
  7151.299  7151.300  0.500  1.306193  151.400600  41.006753  0.242302
  7152.532  7152.530  0.500  1.299867  151.363398  41.256806  0.238963
  7153.786  7153.780  0.500  1.294383  151.391085  41.491276  0.237612
  7155.049  7155.050  0.500  1.290394  151.359068  41.648325  0.240519
  7156.344  7156.340  0.500  1.287303  151.312463  41.764407  0.245657
  7157.656  7157.650  0.500  1.285065  151.291809  41.852254  0.250132
  7158.982  7158.980  0.500  1.283476  151.263473  41.910934  0.252065
  7160.330  7160.330  0.500  1.282517  151.243766  41.945716  0.252961
  7161.705  7161.700  0.500  1.282156  151.210341  41.951573  0.254815
  7163.078  7163.080  0.500  1.282497  151.152693  41.921275  0.258764
  7164.491  7164.490  0.500  1.282486  151.114455  41.911143  0.264310
  7165.913  7165.910  0.500  1.282501  151.065031  41.896816  0.268729
  7167.353  7167.350  0.500  1.283249  151.037086  41.857738  0.271842
  7168.816  7168.810  0.500  1.284741  151.005671  41.786636  0.274830
  7170.294  7170.290  0.500  1.287172  150.989914  41.680830  0.278787
  7171.793  7171.790  0.500  1.290001  150.954822  41.553407  0.286174
  7173.321  7173.310  0.500  1.293036  150.905125  41.413868  0.297985
  7174.856  7174.850  0.500  1.295677  150.885447  41.299247  0.312909
  7176.418  7176.410  0.500  1.296917  150.833510  41.233840  0.330806
  7177.989  7177.980  0.500  1.296305  150.789160  41.246969  0.348495
  7179.587  7179.580  0.500  1.295627  150.762690  41.267678  0.360913
  7181.202  7181.190  0.500  1.294945  150.740340  41.289711  0.364225
  7182.830  7182.830  0.500  1.293785  150.720186  41.332140  0.361248
  7184.490  7184.480  0.500  1.292413  150.686922  41.379740  0.354745
  7186.157  7186.150  0.500  1.291113  150.635125  41.419332  0.341458
  7187.846  7187.840  0.500  1.289449  150.602436  41.479300  0.324542
  7189.555  7189.550  0.500  1.288083  150.599796  41.535263  0.307482
  7191.290  7191.280  0.500  1.286318  149.052018  41.181027  0.287029
  7193.039  7193.030  0.500  1.284952  150.240612  41.566168  0.274061
  7194.796  7194.790  0.500  1.283401  150.393565  41.673046  0.269031
  7196.589  7196.580  0.500  1.281861  150.373564  41.731734  0.274929
  7198.390  7198.380  0.500  1.280122  150.300354  41.784015  0.289223
  7200.217  7200.210  0.500  1.278274  150.265309  41.851548  0.309413
  7202.059  7202.050  0.500  1.276450  150.231341  41.918474  0.333883
  7203.918  7203.910  0.500  1.274830  150.189996  41.974870  0.362207
  7205.803  7205.790  0.500  1.273793  150.140497  42.004594  0.389177
  7207.701  7207.690  0.500  1.272895  150.541365  42.154541  0.403623
  7209.616  7209.610  0.500  1.271657  150.508140  42.197453  0.392029
  7211.557  7211.550  0.500  1.270222  150.467450  42.246644  0.353362
  7213.516  7213.510  0.500  1.268558  150.418028  42.303106  0.300136
  7215.493  7215.480  0.500  1.265645  150.358409  42.409685  0.251191
  7217.489  7217.480  0.500  1.262157  150.296227  42.540273  0.215725
  7219.508  7219.490  0.500  1.259145  150.224333  42.648203  0.196479
  7221.529  7221.520  0.500  1.256634  150.156768  42.736196  0.192965
  7223.597  7223.580  0.500  1.254554  150.079046  42.802986  0.205815
  7225.655  7225.650  0.500  1.252643  149.976936  42.855675  0.231869
  7227.750  7227.740  0.500  1.250792  147.340263  42.180280  0.263911
  7229.864  7229.850  0.500  1.248776  150.144584  43.069809  0.312733
  7231.991  7231.980  0.500  1.246745  150.070204  43.136008  0.361042
  7234.125  7234.120  0.500  1.244643  150.014917  43.210848  0.406542
  7236.308  7236.290  0.500  1.242671  149.958710  43.279945  0.440619
  7238.489  7238.480  0.500  1.240852  149.926856  43.349525  0.455829
  7240.694  7240.680  0.500  1.239592  149.904396  43.397651  0.454047
  7242.912  7242.900  0.500  1.238311  149.874100  43.444508  0.438811
  7245.160  7245.150  0.500  1.236937  147.050572  42.684664  0.409826
  7247.421  7247.410  0.500  1.236111  149.582596  43.455521  0.398576
  7249.703  7249.690  0.500  1.235565  149.604586  43.485635  0.390167
  7252.000  7251.990  0.500  1.235069  149.517136  43.481781  0.394258
  7254.321  7254.310  0.500  1.234267  147.186644  42.838372  0.399930
  7256.666  7256.650  0.500  1.234122  149.551788  43.533081  0.415157
  7259.008  7259.000  0.500  1.233158  149.391583  43.528368  0.412455
  7261.390  7261.380  0.500  1.231953  148.975335  43.459446  0.400135
  7263.789  7263.770  0.500  1.229700  138.324897  40.443465  0.361572
  7266.201  7266.190  0.500  1.228843  149.169567  43.651640  0.381870
  7268.637  7268.620  0.500  1.226639  149.803588  43.933909  0.374103
  7271.079  7271.070  0.500  1.224234  149.740217  44.021064  0.357179
  7273.565  7273.550  0.500  1.221397  148.584423  43.805376  0.336586
  7276.049  7276.040  0.500  1.218772  149.740590  44.262246  0.329379
  7278.562  7278.550  0.500  1.216136  149.676991  44.360245  0.324030
  7281.087  7281.070  0.500  1.213951  149.623995  44.441529  0.315455
  7283.635  7283.620  0.500  1.212268  148.591939  44.209330  0.302130
  7286.198  7286.190  0.500  1.210783  149.248238  44.470564  0.293011
  7288.788  7288.770  0.500  1.209178  149.343171  44.570364  0.289465
  7291.393  7291.380  0.500  1.207639  149.300772  44.626323  0.300134
  7294.012  7294.000  0.500  1.206077  149.267260  44.686035  0.326630
  7296.664  7296.650  0.500  1.204295  149.220885  44.751831  0.361852
  7299.322  7299.310  0.500  1.202485  149.090235  44.793662  0.396550
  7302.008  7301.990  0.500  1.200468  147.359740  44.363117  0.422955
  7304.707  7304.690  0.500  1.198019  149.201397  45.027717  0.453044
  7307.424  7307.410  0.500  1.196077  149.099571  45.084444  0.469704
  7310.161  7310.150  0.500  1.194072  148.945852  45.128346  0.476484
  7312.919  7312.900  0.500  1.192418  148.973846  45.211551  0.476971
  7315.696  7315.680  0.500  1.190047  148.914551  45.300847  0.477655
  7318.483  7318.470  0.500  1.187860  148.875340  45.388074  0.480635
  7321.309  7321.290  0.500  1.185570  148.802791  45.469940  0.483768
  7324.132  7324.120  0.500  1.183394  148.768170  45.558388  0.486240
  7326.981  7326.970  0.500  1.180738  148.705295  45.660287  0.487926
  7329.863  7329.850  0.500  1.178171  148.634988  45.755997  0.491651
  7332.755  7332.740  0.500  1.175611  148.532429  45.841611  0.501522
  7335.665  7335.650  0.500  1.173086  148.462363  45.935834  0.514277
  7338.582  7338.570  0.500  1.170485  147.264518  45.683890  0.518097
  7341.532  7341.520  0.500  1.168230  148.258368  46.096026  0.517932
  7344.504  7344.490  0.500  1.166104  148.259115  46.194355  0.500363
  7347.484  7347.470  0.500  1.164062  148.192561  46.268004  0.474400
  7350.496  7350.480  0.500  1.162112  148.143179  46.342851  0.449495
  7353.517  7353.500  0.500  1.160131  148.099743  46.421131  0.429179
  7356.566  7356.550  0.500  1.158315  148.009556  46.477221  0.411627
  7359.621  7359.610  0.500  1.156518  147.930872  46.536051  0.397038
  7362.698  7362.690  0.500  1.154621  147.845119  46.597378  0.386512
  7365.804  7365.790  0.500  1.152265  147.758637  46.679964  0.383361
  7368.926  7368.910  0.500  1.150290  147.690923  46.750800  0.388426
  7372.067  7372.050  0.500  1.148026  147.616271  46.833074  0.405625
  7375.218  7375.200  0.500  1.146014  147.564294  46.910894  0.436558
  7378.399  7378.380  0.500  1.144132  147.482290  46.973168  0.482332
  7381.584  7381.570  0.500  1.142307  147.415481  47.037653  0.535469
  7384.803  7384.790  0.500  1.140250  147.346163  47.112312  0.576359
  7388.035  7388.020  0.500  1.138446  147.283220  47.177226  0.593402
  7391.282  7391.270  0.500  1.136025  147.201333  47.265298  0.591333
  7394.561  7394.550  0.500  1.133638  147.093265  47.343458  0.582101
  7397.848  7397.840  0.500  1.131202  147.041966  47.442366  0.575910
  7401.157  7401.150  0.500  1.128631  146.953123  47.535784  0.576160
  7404.483  7404.470  0.500  1.126014  146.864405  47.631582  0.579371
  7407.829  7407.820  0.500  1.123523  146.776302  47.721733  0.580487
  7411.205  7411.190  0.500  1.121082  146.695334  47.811957  0.580107
  7414.583  7414.570  0.500  1.118700  146.602596  47.895670  0.580826
  7417.985  7417.980  0.500  1.116361  146.535451  47.985837  0.583733
  7421.404  7421.400  0.500  1.113921  146.452055  48.075698  0.591790
  7424.856  7424.850  0.500  1.111408  146.358378  48.165826  0.605609
  7428.319  7428.310  0.500  1.109049  146.259106  48.246878  0.615902
  7431.800  7431.790  0.500  1.106606  146.133577  48.323368  0.618053
  7435.301  7435.290  0.500  1.104153  146.049675  48.414239  0.615608
  7438.823  7438.810  0.500  1.101810  145.901149  48.478429  0.607345
  7442.364  7442.350  0.500  1.099278  145.747475  48.550149  0.591257
  7445.910  7445.900  0.500  1.096954  141.890275  47.375236  0.560299
  7449.490  7449.480  0.500  1.094259  145.743331  48.793048  0.564670
  7453.095  7453.080  0.500  1.091933  144.498544  48.488971  0.556604
  7456.695  7456.690  0.500  1.089772  145.530808  48.941009  0.563080
  7460.336  7460.320  0.500  1.087685  144.930637  48.841016  0.565524
  7463.997  7463.980  0.500  1.085153  145.290021  49.086240  0.576940
  7467.660  7467.650  0.500  1.082452  141.330223  47.877567  0.577526
  7471.345  7471.340  0.500  1.079992  145.257638  49.329226  0.615745
  7475.063  7475.050  0.500  1.077422  145.092388  49.399902  0.636518
  7478.791  7478.780  0.500  1.075042  144.928478  49.461683  0.652459
  7482.536  7482.520  0.500  1.072752  144.818962  49.537621  0.667688
  7486.303  7486.290  0.500  1.070214  144.637763  49.601356  0.686587
  7490.115  7490.080  0.500  1.067587  144.585650  49.713928  0.707453
  7493.900  7493.880  0.500  1.065130  144.493821  49.804554  0.722766
  7497.724  7497.710  0.500  1.062600  144.399490  49.898144  0.729005
  7501.570  7501.550  0.500  1.060137  144.305757  49.988738  0.727421
  7505.446  7505.410  0.500  1.057607  144.160948  50.065060  0.724486
  7509.309  7509.290  0.500  1.055088  144.037578  50.148364  0.724501
  7513.210  7513.190  0.500  1.052453  143.924908  50.241365  0.729174
  7517.104  7517.110  0.500  1.050163  143.784402  50.307379  0.736061
  7521.045  7521.050  0.500  1.047622  143.620704  50.377941  0.741629
  7525.026  7525.010  0.500  1.044940  143.498108  50.470162  0.745361
  7529.002  7528.980  0.500  1.042411  143.339145  50.541878  0.745096
  7533.002  7532.980  0.500  1.040018  143.222222  50.621629  0.746332
  7537.015  7536.990  0.500  1.037556  143.098804  50.702686  0.749879
  7541.051  7541.030  0.500  1.034823  142.990069  50.802826  0.757049
  7545.110  7545.080  0.500  1.032492  142.847414  50.870595  0.763799
  7549.147  7549.150  0.500  1.030356  142.670065  50.916091  0.768736
  7553.275  7553.240  0.500  1.027482  142.540577  51.016266  0.769382
  7557.387  7557.350  0.500  1.024758  142.405207  51.106828  0.765285
  7561.511  7561.480  0.500  1.022142  142.263721  51.189796  0.759974
  7565.617  7565.630  0.500  1.019290  142.097375  51.275962  0.760106
  7569.821  7569.790  0.500  1.016569  141.940271  51.358874  0.767139
  7573.988  7573.980  0.500  1.014013  141.790706  51.436055  0.781115
  7578.167  7578.180  0.500  1.011280  141.635928  51.520505  0.800654
  7582.400  7582.410  0.500  1.009024  141.486548  51.582412  0.820734
  7586.643  7586.650  0.500  1.006128  141.337839  51.677626  0.837433
  7590.893  7590.910  0.500  1.003419  141.130219  51.741673  0.848160
  7595.207  7595.190  0.500  1.000764  140.905041  51.796504  0.854228
  7599.474  7599.490  0.500  0.997788  140.630861  51.849767  0.857393
  7603.828  7603.810  0.500  0.995235  140.066469  51.773712  0.861213
  7608.132  7608.150  0.500  0.992402  139.865580  51.846107  0.870821
  7612.531  7612.510  0.500  0.989959  139.654232  51.894382  0.882724
  7616.905  7616.890  0.500  0.987454  139.603599  52.005669  0.893174
  7621.297  7621.280  0.500  0.984809  139.668382  52.167597  0.898163
  7625.696  7625.700  0.500  0.982334  139.643323  52.287526  0.900318
  7630.121  7630.130  0.500  0.979663  139.542595  52.389525  0.905531
  7634.576  7634.580  0.500  0.976787  139.356634  52.470408  0.915795
  7639.031  7639.050  0.500  0.973941  139.202670  52.561800  0.929361
  7643.519  7643.540  0.500  0.971304  139.043040  52.640188  0.943326
  7648.035  7648.050  0.500  0.968738  138.874491  52.711436  0.955458
  7652.571  7652.580  0.500  0.966067  138.705342  52.788032  0.964244
  7657.146  7657.130  0.500  0.963178  138.555412  52.883532  0.970772
  7661.691  7661.700  0.500  0.960361  138.348760  52.953651  0.975452
  7666.267  7666.280  0.500  0.958170  138.785731  53.237408  0.981444
  7670.871  7670.890  0.500  0.955395  138.645935  53.331581  0.982890
  7675.503  7675.510  0.500  0.952706  138.469859  53.407245  0.984016
  7680.146  7680.160  0.500  0.949831  138.256490  53.478479  0.985729
  7684.808  7684.820  0.500  0.947049  137.959240  53.512179  0.989936
  7689.483  7689.500  0.500  0.944370  138.084617  53.704480  1.001320
  7694.189  7694.200  0.500  0.941327  137.759868  53.741491  1.012690
  7698.914  7698.920  0.500  0.938440  137.503462  53.796541  1.023816
  7703.647  7703.660  0.500  0.935631  137.241694  53.845183  1.034916
  7708.397  7708.410  0.500  0.932819  137.173674  53.970039  1.047536
  7713.193  7713.190  0.500  0.930249  136.899605  54.000826  1.059781
  7717.977  7717.990  0.500  0.927328  136.671609  54.068573  1.073180
  7722.781  7722.800  0.500  0.924711  136.571282  54.170465  1.085921
  7727.606  7727.630  0.500  0.921690  136.353346  54.247665  1.095422
  7732.467  7732.490  0.500  0.918929  136.169534  54.324315  1.103597
  7737.338  7737.360  0.500  0.916332  135.858134  54.341026  1.110635
  7742.238  7742.250  0.500  0.913563  135.960078  54.532582  1.122664
  7747.165  7747.160  0.500  0.910738  135.616331  54.548581  1.130894
  7752.068  7752.090  0.500  0.907782  135.394775  54.620679  1.138753
  7757.015  7757.030  0.500  0.904968  135.162811  54.680778  1.147498
  7761.990  7762.000  0.500  0.902097  134.893192  54.728581  1.158527
  7766.995  7766.990  0.500  0.899396  134.722860  54.807341  1.171789
  7771.975  7771.990  0.500  0.896564  134.522893  54.881153  1.184630
  7777.024  7777.020  0.500  0.893624  134.341811  54.968684  1.196939
  7782.048  7782.060  0.500  0.890782  134.130100  55.038268  1.207519
  7787.103  7787.120  0.500  0.887750  133.910302  55.114901  1.218472
  7792.219  7792.200  0.500  0.884929  133.694502  55.181553  1.228233
  7797.284  7797.300  0.500  0.882216  133.526501  55.261927  1.236799
  7802.393  7802.420  0.500  0.879209  133.329219  55.346465  1.245318
  7807.540  7807.560  0.500  0.876466  133.091971  55.399689  1.252095
  7812.705  7812.720  0.500  0.873683  132.869730  55.461331  1.259968
  7817.881  7817.900  0.500  0.870920  132.676679  55.533974  1.268261
  7823.078  7823.090  0.500  0.868003  132.453433  55.602522  1.278329
  7828.314  7828.310  0.500  0.865299  132.215495  55.652878  1.287137
  7833.523  7833.540  0.500  0.862380  131.994501  55.722300  1.296651
  7838.770  7838.790  0.500  0.859385  131.464463  55.665017  1.303438
  7844.051  7844.060  0.500  0.856593  131.534179  55.850214  1.316813
  7849.334  7849.350  0.500  0.853451  131.262814  55.910427  1.328077
  7854.640  7854.660  0.500  0.850671  130.172676  55.600435  1.330501
  7859.977  7859.990  0.500  0.847764  130.832422  56.044879  1.352135
  7865.338  7865.340  0.500  0.844805  130.581871  56.103318  1.365736
  7870.691  7870.710  0.500  0.841874  130.343104  56.165164  1.378555
  7876.069  7876.090  0.500  0.839158  130.117294  56.220297  1.392160
  7881.474  7881.500  0.500  0.836499  129.895941  56.274109  1.404998
  7886.894  7886.920  0.500  0.833479  129.685167  56.352738  1.418781
  7892.349  7892.370  0.500  0.830671  129.439672  56.404230  1.430432
  7897.803  7897.830  0.500  0.827483  129.114639  56.442246  1.442445
  7903.287  7903.310  0.500  0.824447  128.925574  56.530949  1.456424
  7908.786  7908.810  0.500  0.821609  128.680550  56.583893  1.469111
  7914.307  7914.330  0.500  0.818735  128.395244  56.620893  1.480380
  7919.863  7919.870  0.500  0.815726  128.153580  56.684669  1.492371
  7925.394  7925.420  0.500  0.812931  127.875521  56.719950  1.504420
  7930.976  7931.000  0.500  0.810015  127.515566  56.725487  1.515179
  7936.578  7936.600  0.500  0.807208  127.143827  56.719108  1.524209
  7942.182  7942.210  0.500  0.804169  127.158281  56.898202  1.537733
  7947.832  7947.850  0.500  0.801336  126.839242  56.916452  1.546770
  7953.485  7953.500  0.500  0.798338  126.476173  56.923934  1.556517
  7959.152  7959.170  0.500  0.795413  126.199389  56.965727  1.568719
  7964.835  7964.860  0.500  0.792763  125.884219  56.974283  1.579119
