# XDI/1.0 BlueSky/1.10.0 BMM/2023-1.0-py310-tiled
# Beamline.name: BMM (06BM) -- Beamline for Materials Measurement (NIST)
# Beamline.xray_source: NSLS-II three-pole wiggler
# Beamline.collimation: paraboloid mirror, 5 nm Rh on 30 nm Pt
# Beamline.focusing: not in use
# Beamline.harmonic_rejection: flat mirror, Si stripe, pitch = 7.0 mrad relative to beam
# Beamline.software: Bluesky 1.10.0, Ophyd 1.7.0, DataBroker 2.0.0b13, Python 3.10.8, 2023-1.0-py310-tiled
# Detector.I0: 10 cm N2
# Detector.I1: 25 cm N2
# Detector.I2: 25 cm N2
# Element.symbol: Fe
# Element.edge: K
# Element.reference: Fe
# Element.reference_material: Fe foil
# Facility.name: NSLS-II
# Facility.energy: 3.0
# Facility.current: 400.4
# Facility.mode: top-off
# Facility.GUP: 123456
# Facility.SAF: 301027
# Facility.cycle: 2023-2
# Mono.name: Si(111)
# Mono.d_spacing: 3.1351860
# Mono.encoder_resolution: 0.0000050 deg/ct
# Mono.angle_offset: 16.0754326 deg
# Mono.scan_mode: pseudo channel cut
# Mono.scan_type: step
# Mono.direction: forward in energy
# Sample.name: (Mn,Fe,Mg)SiO3.H2O
# Sample.prep: PEG pellet
# Sample.x: 142.329 mm
# Sample.y: 114.126 mm
# Sample.SDD_position: 205.000 mm
# Scan.experimenters: Bruce Ravel
# Scan.edge_energy: 7112.0
# Scan.start_time: 2023-05-05T20:56:36
# Scan.end_time: 2023-05-05T21:04:49
# Scan.transient_id: 74636
# Scan.uid: 92be5678-a391-4e04-9d22-f8db80202ee6
# Scan.plot_hint: ln(I0/It)  --  ln($5/$6)
# Column.1: energy eV
# Column.2: requested_energy eV
# Column.3: measurement_time seconds
# Column.4: xmu 
# Column.5: I0 nA
# Column.6: It nA
# Column.7: Ir nA
# ///////////
# courtesy Martin Stennett, University of Sheffield
# -----------
# energy  requested_energy  measurement_time  xmu  I0  It  Ir
  6912.005  6912.000  0.500  2.163444  155.080296  17.823156  3.338636
  6922.009  6922.000  0.500  2.151820  154.927908  18.013833  3.397622
  6932.017  6932.000  0.500  2.140636  154.860624  18.208510  3.458445
  6942.029  6942.000  0.500  2.128829  154.858364  18.424511  3.524946
  6951.995  6952.000  0.500  2.116115  154.822128  18.655895  3.594025
  6962.004  6962.000  0.500  2.104102  154.812499  18.880185  3.662575
  6972.014  6972.000  0.500  2.092326  154.781803  19.100041  3.730779
  6982.019  6982.000  0.500  2.080904  154.773737  19.318453  3.799460
  6992.014  6992.000  0.500  2.069644  154.752198  19.534471  3.867045
  7002.011  7002.000  0.500  2.059004  154.699485  19.736707  3.933480
  7012.008  7012.000  0.500  2.047691  154.653052  19.955268  4.003324
  7022.012  7022.000  0.500  2.036127  154.585321  20.178531  4.075325
  7032.010  7032.000  0.500  2.024517  154.521787  20.405780  4.146554
  7042.011  7042.000  0.500  2.013092  154.438924  20.629187  4.218786
  7052.003  7052.000  0.500  2.001855  154.330007  20.847582  4.289932
  7062.008  7062.000  0.500  1.990525  153.603285  20.985836  4.341568
  7072.007  7072.000  0.500  1.979490  154.127959  21.291179  4.424894
  7081.982  7082.000  0.500  1.968869  154.049036  21.507499  4.486610
  7083.987  7084.000  0.500  1.966877  153.797247  21.515163  4.490325
  7085.982  7086.000  0.500  1.964625  153.923318  21.581361  4.505175
  7087.985  7088.000  0.500  1.962512  153.923617  21.627033  4.516416
  7089.990  7090.000  0.500  1.960417  153.897905  21.668768  4.524125
  7091.993  7092.000  0.500  1.958323  153.878790  21.711507  4.531994
  7093.995  7094.000  0.500  1.956273  153.842566  21.750943  4.536865
  7095.975  7096.000  0.500  1.954123  153.871515  21.801857  4.542232
  7098.063  7098.000  0.500  1.951910  153.790709  21.838668  4.542033
  7099.994  7100.000  0.500  1.950363  153.758758  21.867950  4.536056
  7101.999  7102.000  0.500  1.948258  153.731835  21.910185  4.525023
  7102.292  7102.300  0.500  1.947893  153.725647  21.917306  4.523010
  7102.587  7102.600  0.500  1.947403  153.706518  21.925321  4.520994
  7102.887  7102.900  0.500  1.947223  153.697591  21.927993  4.518191
  7103.197  7103.200  0.500  1.946905  153.692771  21.934279  4.514181
  7103.490  7103.500  0.500  1.946732  153.687421  21.937299  4.511390
  7103.785  7103.800  0.500  1.946371  153.681470  21.944386  4.507359
  7104.087  7104.100  0.500  1.946135  153.660399  21.946559  4.502100
  7104.384  7104.400  0.500  1.945725  153.660404  21.955551  4.496661
  7104.692  7104.700  0.500  1.945510  153.647723  21.958464  4.491351
  7104.985  7105.000  0.500  1.945108  153.645995  21.967035  4.486228
  7105.285  7105.300  0.500  1.944875  153.630971  21.970016  4.479152
  7105.584  7105.600  0.500  1.944802  153.611666  21.968865  4.469754
  7105.893  7105.900  0.500  1.944530  153.613759  21.975141  4.461858
  7106.190  7106.200  0.500  1.944167  153.597502  21.980780  4.451810
  7106.490  7106.500  0.500  1.943717  153.582256  21.988499  4.442905
  7106.787  7106.800  0.500  1.943220  153.575740  21.998496  4.432061
  7107.089  7107.100  0.500  1.942995  153.568374  22.002396  4.418588
  7107.389  7107.400  0.500  1.942717  153.558314  22.007067  4.403695
  7107.691  7107.700  0.500  1.942499  153.555255  22.011422  4.386096
  7107.987  7108.000  0.500  1.942079  153.536611  22.017985  4.366593
  7108.287  7108.300  0.500  1.942061  153.527580  22.017091  4.340136
  7108.586  7108.600  0.500  1.941720  153.496059  22.020080  4.311540
  7108.891  7108.900  0.500  1.941357  153.522634  22.031889  4.279696
  7109.193  7109.200  0.500  1.941367  153.501292  22.028598  4.234399
  7109.495  7109.500  0.500  1.941255  153.481093  22.028168  4.178781
  7109.788  7109.800  0.500  1.941004  153.488735  22.034796  4.108412
  7110.091  7110.100  0.500  1.940392  153.458828  22.044001  4.007399
  7110.393  7110.400  0.500  1.939912  153.436556  22.051371  3.864864
  7110.699  7110.700  0.500  1.939825  153.425061  22.051656  3.661849
  7110.999  7111.000  0.500  1.939430  153.390157  22.055334  3.400626
  7111.291  7111.300  0.500  1.939137  153.361535  22.057682  3.091723
  7111.595  7111.600  0.500  1.939084  153.865642  22.131357  2.771907
  7111.893  7111.900  0.500  1.939084  153.830865  22.126363  2.473870
  7112.198  7112.200  0.500  1.939009  153.799244  22.123471  2.236702
  7112.492  7112.500  0.500  1.938865  153.771763  22.122710  2.062653
  7112.790  7112.800  0.500  1.938948  153.738622  22.116092  1.931211
  7113.092  7113.100  0.500  1.939072  153.708795  22.109075  1.822413
  7113.397  7113.400  0.500  1.939024  153.694886  22.108137  1.728810
  7113.701  7113.700  0.500  1.939011  153.680236  22.106314  1.644473
  7114.000  7114.000  0.500  1.938752  153.680090  22.112004  1.568951
  7114.294  7114.300  0.500  1.938665  153.656012  22.110480  1.503003
  7114.596  7114.600  0.500  1.938356  153.654591  22.117094  1.447026
  7114.899  7114.900  0.500  1.937922  153.659360  22.127401  1.405041
  7115.204  7115.200  0.500  1.937307  153.629502  22.136707  1.374163
  7115.498  7115.500  0.500  1.936730  153.619676  22.148062  1.352838
  7115.800  7115.800  0.500  1.936220  153.602709  22.156915  1.336889
  7116.094  7116.100  0.500  1.935828  153.604436  22.165840  1.325364
  7116.395  7116.400  0.500  1.935461  153.584439  22.171107  1.311993
  7116.696  7116.700  0.500  1.935261  153.571513  22.173672  1.294564
  7116.996  7117.000  0.500  1.935200  153.555823  22.172756  1.267251
  7117.295  7117.300  0.500  1.934959  153.543173  22.176271  1.229635
  7117.598  7117.600  0.500  1.934986  153.522170  22.172637  1.176171
  7117.898  7117.900  0.500  1.935392  153.511278  22.162063  1.111395
  7118.203  7118.200  0.500  1.935602  153.487062  22.153926  1.038072
  7118.502  7118.500  0.500  1.935230  153.475141  22.160443  0.964956
  7118.798  7118.800  0.500  1.935506  153.465664  22.152956  0.892680
  7119.101  7119.100  0.500  1.935892  153.449819  22.142129  0.823952
  7119.402  7119.400  0.500  1.936241  153.434946  22.132247  0.760920
  7119.701  7119.700  0.500  1.937034  153.429127  22.113869  0.701611
  7120.000  7120.000  0.500  1.937907  153.415596  22.092613  0.645107
  7120.296  7120.300  0.500  1.939024  153.399153  22.065582  0.590944
  7120.602  7120.600  0.500  1.939844  153.386209  22.045644  0.539761
  7120.894  7120.900  0.500  1.940955  153.365620  22.018208  0.493815
  7121.206  7121.200  0.500  1.942570  153.342398  21.979347  0.453841
  7121.498  7121.500  0.500  1.944121  153.331168  21.943669  0.420219
  7121.797  7121.800  0.500  1.945600  153.311941  21.908491  0.391479
  7122.100  7122.100  0.500  1.946936  153.275553  21.874063  0.366897
  7122.403  7122.400  0.500  1.949011  153.276957  21.828919  0.345230
  7122.702  7122.700  0.500  1.951000  153.263810  21.783681  0.326607
  7123.004  7123.000  0.500  1.953228  153.233569  21.730895  0.309993
  7123.303  7123.300  0.500  1.955856  153.220055  21.671950  0.295275
  7123.600  7123.600  0.500  1.958530  153.212976  21.613092  0.282456
  7123.903  7123.900  0.500  1.960997  153.191046  21.556751  0.271273
  7124.200  7124.200  0.500  1.963620  153.202037  21.501814  0.261273
  7124.497  7124.500  0.500  1.966245  153.181877  21.442631  0.251593
  7124.798  7124.800  0.500  1.969200  153.152326  21.375240  0.242420
  7125.095  7125.100  0.500  1.972016  153.129738  21.311984  0.234042
  7125.401  7125.400  0.500  1.974711  153.114436  21.252496  0.226120
  7125.702  7125.700  0.500  1.977680  153.091393  21.186305  0.218575
  7125.997  7126.000  0.500  1.980505  153.072045  21.123865  0.211673
  7126.299  7126.300  0.500  1.983743  153.054944  21.053231  0.204257
  7126.605  7126.600  0.500  1.986966  153.035612  20.982829  0.197078
  7126.904  7126.900  0.500  1.990498  153.011636  20.905581  0.189348
  7127.203  7127.200  0.500  1.994531  152.996626  20.819395  0.181764
  7127.503  7127.500  0.500  1.998245  152.971502  20.738799  0.174071
  7127.798  7127.800  0.500  2.002266  152.957261  20.653655  0.166216
  7128.102  7128.100  0.500  2.006259  152.922224  20.566643  0.158059
  7128.403  7128.400  0.500  2.009906  152.901019  20.488926  0.150296
  7128.698  7128.700  0.500  2.013075  152.859085  20.418508  0.142696
  7128.994  7129.000  0.500  2.016321  152.846585  20.350677  0.135098
  7129.295  7129.300  0.500  2.018942  152.808963  20.292395  0.127889
  7129.601  7129.600  0.500  2.021294  152.799442  20.243475  0.121393
  7129.899  7129.900  0.500  2.023009  152.771737  20.205111  0.115925
  7130.203  7130.200  0.500  2.024166  152.743735  20.178064  0.111519
  7130.500  7130.500  0.500  2.025180  152.709106  20.153043  0.108220
  7130.800  7130.800  0.500  2.025784  152.683304  20.137471  0.106009
  7131.104  7131.100  0.500  2.026182  152.639434  20.123667  0.104988
  7131.406  7131.400  0.500  2.026108  152.623635  20.123078  0.105427
  7131.701  7131.700  0.500  2.026104  152.609785  20.121316  0.107255
  7132.001  7132.000  0.500  2.025690  152.592955  20.127439  0.110122
  7132.295  7132.300  0.500  2.025053  152.588809  20.139717  0.113905
  7132.601  7132.600  0.500  2.023757  152.573304  20.163775  0.118557
  7132.896  7132.900  0.500  2.022263  152.578817  20.194662  0.123800
  7133.196  7133.200  0.500  2.020425  152.564675  20.229929  0.129382
  7133.496  7133.500  0.500  2.018694  152.563019  20.264765  0.135439
  7133.796  7133.800  0.500  2.016801  152.541211  20.300266  0.141308
  7134.105  7134.100  0.500  2.014768  152.550706  20.342844  0.147307
  7134.398  7134.400  0.500  2.013186  152.539727  20.373591  0.152799
  7134.701  7134.700  0.500  2.011481  152.536933  20.407967  0.157707
  7134.998  7135.000  0.500  2.010038  152.536498  20.437392  0.162035
  7135.301  7135.300  0.500  2.008761  152.526047  20.462103  0.166089
  7135.607  7135.600  0.500  2.007609  152.515807  20.484308  0.169410
  7135.901  7135.900  0.500  2.006495  152.523972  20.508243  0.172250
  7136.205  7136.200  0.500  2.005818  152.504510  20.519506  0.174213
  7136.501  7136.500  0.500  2.005100  152.499372  20.533555  0.175266
  7136.795  7136.800  0.500  2.004536  152.495282  20.544591  0.176189
  7136.996  7137.000  0.500  2.004003  152.496053  20.555648  0.176336
  7138.003  7137.990  0.500  2.001824  152.498204  20.600772  0.173542
  7139.001  7138.990  0.500  1.999496  152.485426  20.647054  0.166642
  7140.030  7140.010  0.500  1.996510  152.442412  20.702964  0.158864
  7141.085  7141.060  0.500  1.993397  152.476065  20.772089  0.154296
  7142.104  7142.120  0.500  1.990199  152.421294  20.831150  0.153655
  7143.184  7143.200  0.500  1.987072  152.429562  20.897528  0.156452
  7144.292  7144.300  0.500  1.984392  152.433290  20.954122  0.159751
  7145.413  7145.420  0.500  1.981812  152.422552  21.006775  0.159174
  7146.561  7146.560  0.500  1.978665  152.430053  21.074007  0.154217
  7147.707  7147.710  0.500  1.975040  152.405246  21.147103  0.145267
  7148.890  7148.890  0.500  1.971084  152.400673  21.230302  0.136034
  7150.083  7150.080  0.500  1.967405  152.382439  21.305993  0.130087
  7151.301  7151.300  0.500  1.964009  152.392095  21.379822  0.126750
  7152.532  7152.530  0.500  1.960810  152.374744  21.445884  0.124512
  7153.786  7153.780  0.500  1.957760  152.356322  21.508798  0.123569
  7155.052  7155.050  0.500  1.955111  152.327479  21.561764  0.124886
  7156.342  7156.340  0.500  1.952349  152.316177  21.619807  0.127515
  7157.652  7157.650  0.500  1.950384  152.293484  21.659099  0.129599
  7158.975  7158.980  0.500  1.948305  152.283393  21.702741  0.130724
  7160.332  7160.330  0.500  1.946415  152.250204  21.739044  0.131487
  7161.703  7161.700  0.500  1.945302  152.219200  21.758823  0.132442
  7163.080  7163.080  0.500  1.944561  152.177833  21.769036  0.134837
  7164.495  7164.490  0.500  1.944395  152.138555  21.767028  0.137643
  7165.922  7165.910  0.500  1.944706  152.087845  21.753010  0.139724
  7167.353  7167.350  0.500  1.944931  152.057909  21.743835  0.141439
  7168.811  7168.810  0.500  1.945283  152.024879  21.731460  0.142892
  7170.292  7170.290  0.500  1.945797  151.995068  21.716036  0.145581
  7171.791  7171.790  0.500  1.946370  151.973044  21.700456  0.149690
  7173.318  7173.310  0.500  1.946413  151.931945  21.693658  0.156366
  7174.853  7174.850  0.500  1.946826  151.896738  21.679660  0.164569
  7176.420  7176.410  0.500  1.946485  151.871506  21.683458  0.174256
  7177.985  7177.980  0.500  1.945247  151.843243  21.706277  0.183530
  7179.594  7179.580  0.500  1.943811  151.807742  21.732396  0.190338
  7181.193  7181.190  0.500  1.942164  151.788421  21.765439  0.192073
  7182.836  7182.830  0.500  1.940166  151.757115  21.804477  0.190925
  7184.494  7184.480  0.500  1.938367  151.711566  21.837175  0.187211
  7186.157  7186.150  0.500  1.936422  151.682548  21.875505  0.180451
  7187.849  7187.840  0.500  1.934506  151.635566  21.910684  0.171566
  7189.552  7189.550  0.500  1.932762  151.611454  21.945423  0.162692
  7191.290  7191.280  0.500  1.930959  150.070288  21.761558  0.151918
  7193.039  7193.030  0.500  1.929109  151.220282  21.968922  0.145060
  7194.798  7194.790  0.500  1.927100  151.413800  22.041257  0.142610
  7196.591  7196.580  0.500  1.925053  151.388807  22.082791  0.145847
  7198.390  7198.380  0.500  1.922954  151.351281  22.123692  0.153442
  7200.224  7200.210  0.500  1.920641  151.302700  22.167825  0.164134
  7202.059  7202.050  0.500  1.918238  151.258999  22.214731  0.177328
  7203.920  7203.910  0.500  1.915921  151.214945  22.259787  0.192362
  7205.790  7205.790  0.500  1.913207  151.173188  22.314115  0.206733
  7207.699  7207.690  0.500  1.910622  151.098054  22.360745  0.214089
  7209.618  7209.610  0.500  1.908175  151.302099  22.445797  0.208634
  7211.562  7211.550  0.500  1.905873  151.340660  22.503272  0.188349
  7213.514  7213.510  0.500  1.903246  151.283266  22.553896  0.160147
  7215.498  7215.480  0.500  1.900894  151.241672  22.600787  0.134106
  7217.485  7217.480  0.500  1.898601  151.171261  22.642130  0.115077
  7219.504  7219.490  0.500  1.896387  151.060624  22.675700  0.104890
  7221.531  7221.520  0.500  1.894364  151.058206  22.721261  0.103018
  7223.595  7223.580  0.500  1.892018  150.986820  22.763862  0.109861
  7225.662  7225.650  0.500  1.890130  150.855974  22.787129  0.123650
  7227.748  7227.740  0.500  1.887999  148.211963  22.435501  0.140743
  7229.856  7229.850  0.500  1.885801  151.025104  22.911634  0.166553
  7231.993  7231.980  0.500  1.883804  150.962757  22.947968  0.192567
  7234.128  7234.120  0.500  1.881847  150.892192  22.982163  0.216327
  7236.305  7236.290  0.500  1.879893  150.849158  23.020552  0.234410
  7238.489  7238.480  0.500  1.877951  150.809124  23.059182  0.242632
  7240.694  7240.680  0.500  1.875965  150.747588  23.095598  0.241946
  7242.912  7242.900  0.500  1.874079  150.718743  23.134776  0.233870
  7245.167  7245.150  0.500  1.872156  147.875478  22.742021  0.218360
  7247.425  7247.410  0.500  1.870210  150.440127  23.181514  0.212655
  7249.701  7249.690  0.500  1.868201  150.444409  23.228801  0.208780
  7252.003  7251.990  0.500  1.866197  150.368354  23.263632  0.210942
  7254.324  7254.310  0.500  1.864206  148.020606  22.946035  0.214291
  7256.664  7256.650  0.500  1.862273  150.424191  23.363769  0.222995
  7259.004  7259.000  0.500  1.860107  150.261852  23.389148  0.221563
  7261.394  7261.380  0.500  1.857685  149.827707  23.378132  0.215136
  7263.782  7263.770  0.500  1.855635  139.372305  21.791360  0.194958
  7266.201  7266.190  0.500  1.852993  149.970363  23.510445  0.205694
  7268.630  7268.620  0.500  1.850657  150.560909  23.658232  0.201541
  7271.079  7271.070  0.500  1.848258  150.529476  23.710104  0.192378
  7273.570  7273.550  0.500  1.845746  149.381159  23.588391  0.181435
  7276.049  7276.040  0.500  1.843493  150.548258  23.826307  0.177522
  7278.562  7278.550  0.500  1.841067  150.498064  23.876218  0.174495
  7281.080  7281.070  0.500  1.838479  150.457391  23.931631  0.170314
  7283.630  7283.620  0.500  1.835914  149.459207  23.833903  0.163173
  7286.205  7286.190  0.500  1.833374  150.079783  23.993745  0.158339
  7288.781  7288.770  0.500  1.830966  150.174841  24.066832  0.156405
  7291.391  7291.380  0.500  1.828231  150.145725  24.128056  0.162531
  7294.014  7294.000  0.500  1.825579  150.097198  24.184322  0.176975
  7296.664  7296.650  0.500  1.822966  150.031326  24.236948  0.196074
  7299.320  7299.310  0.500  1.820367  149.916195  24.281378  0.215239
  7302.008  7301.990  0.500  1.817916  148.176697  24.058535  0.229583
  7304.705  7304.690  0.500  1.815192  150.037363  24.427079  0.245617
  7307.422  7307.410  0.500  1.812315  149.943584  24.482142  0.254931
  7310.163  7310.150  0.500  1.809566  149.897228  24.541950  0.259116
  7312.916  7312.900  0.500  1.806872  149.832546  24.597545  0.259405
  7315.694  7315.680  0.500  1.804044  149.756396  24.654668  0.259921
  7318.483  7318.470  0.500  1.801084  149.710809  24.720219  0.261941
  7321.302  7321.290  0.500  1.798371  149.656001  24.778305  0.263607
  7324.134  7324.120  0.500  1.795557  149.587321  24.836732  0.265047
  7326.983  7326.970  0.500  1.792985  149.506295  24.887190  0.266071
  7329.861  7329.850  0.500  1.790321  149.447888  24.943838  0.268247
  7332.757  7332.740  0.500  1.787517  149.398464  25.005615  0.273634
  7335.665  7335.650  0.500  1.784946  149.341112  25.060348  0.280704
  7338.582  7338.570  0.500  1.782582  148.108095  24.912273  0.282526
  7341.532  7341.520  0.500  1.779635  149.095061  25.152300  0.282619
  7344.497  7344.490  0.500  1.777202  149.075016  25.210181  0.273280
  7347.486  7347.470  0.500  1.774653  149.030583  25.266975  0.259219
  7350.496  7350.480  0.500  1.771872  148.971437  25.327289  0.245805
  7353.515  7353.500  0.500  1.769097  148.904927  25.386333  0.234692
  7356.559  7356.550  0.500  1.765951  148.845273  25.456115  0.225621
  7359.623  7359.610  0.500  1.763121  148.770930  25.515523  0.217925
  7362.700  7362.690  0.500  1.760061  148.693122  25.580323  0.212399
  7365.804  7365.790  0.500  1.757429  148.620766  25.635258  0.210738
  7368.928  7368.910  0.500  1.754641  148.544872  25.693697  0.213953
  7372.065  7372.050  0.500  1.751409  148.492663  25.767814  0.223378
  7375.220  7375.200  0.500  1.748333  148.407881  25.832458  0.240575
  7378.395  7378.380  0.500  1.745260  148.300355  25.893179  0.265994
  7381.586  7381.570  0.500  1.742233  148.256155  25.963930  0.295648
  7384.803  7384.790  0.500  1.739360  148.137025  26.017706  0.318605
  7388.033  7388.020  0.500  1.736461  148.095972  26.086010  0.328041
  7391.277  7391.270  0.500  1.733458  148.011995  26.149645  0.327132
  7394.559  7394.550  0.500  1.730388  147.936694  26.216682  0.322055
  7397.846  7397.840  0.500  1.727276  147.849259  26.282865  0.318852
  7401.160  7401.150  0.500  1.724312  147.769953  26.346736  0.319302
  7404.479  7404.470  0.500  1.721349  147.681789  26.409164  0.321323
  7407.829  7407.820  0.500  1.718105  147.599165  26.480139  0.322290
  7411.203  7411.190  0.500  1.715145  147.510160  26.542626  0.322037
  7414.580  7414.570  0.500  1.712118  147.415159  26.605937  0.322575
  7417.987  7417.980  0.500  1.708944  147.306916  26.670942  0.324603
  7421.411  7421.400  0.500  1.706173  147.220214  26.729188  0.329167
  7424.856  7424.850  0.500  1.702965  147.128457  26.798377  0.337015
  7428.312  7428.310  0.500  1.699656  147.028427  26.868903  0.342928
  7431.798  7431.790  0.500  1.696638  146.935449  26.933085  0.344177
  7435.303  7435.290  0.500  1.693350  146.830381  27.002468  0.343304
  7438.821  7438.810  0.500  1.690220  146.704887  27.063952  0.338730
  7442.357  7442.350  0.500  1.687181  146.551520  27.117950  0.330717
  7445.910  7445.900  0.500  1.683817  142.639577  26.483031  0.313184
  7449.486  7449.480  0.500  1.680502  146.466267  27.283808  0.315834
  7453.091  7453.080  0.500  1.677256  145.166205  27.129531  0.311469
  7456.695  7456.690  0.500  1.674127  146.278662  27.423133  0.315548
  7460.331  7460.320  0.500  1.670909  145.693054  27.401382  0.317454
  7463.992  7463.980  0.500  1.667725  146.041464  27.554491  0.324056
  7467.662  7467.650  0.500  1.664465  142.024742  26.884141  0.324884
  7471.352  7471.340  0.500  1.661369  145.978594  27.718250  0.346151
  7475.065  7475.050  0.500  1.658102  145.847106  27.783911  0.357803
  7478.789  7478.780  0.500  1.654699  145.712811  27.852945  0.367405
  7482.533  7482.520  0.500  1.651500  145.596219  27.919822  0.376142
  7486.300  7486.290  0.500  1.648209  145.478425  27.989197  0.387378
  7490.088  7490.080  0.500  1.645030  145.352120  28.053951  0.398970
  7493.895  7493.880  0.500  1.641896  145.247524  28.121743  0.408139
  7497.727  7497.710  0.500  1.638261  145.135570  28.202412  0.411658
  7501.565  7501.550  0.500  1.634754  145.013036  28.277583  0.411475
  7505.419  7505.410  0.500  1.631344  144.848594  28.341995  0.410048
  7509.304  7509.290  0.500  1.627900  144.746286  28.419701  0.410475
  7513.225  7513.190  0.500  1.624775  144.641902  28.488094  0.413565
  7517.128  7517.110  0.500  1.621448  144.506533  28.556272  0.417905
  7521.069  7521.050  0.500  1.618075  144.353418  28.622402  0.421169
  7525.026  7525.010  0.500  1.614615  144.240046  28.699036  0.423576
  7529.002  7528.980  0.500  1.611059  144.106006  28.774528  0.424308
  7532.992  7532.980  0.500  1.607666  143.976398  28.846355  0.424973
  7537.003  7536.990  0.500  1.604128  143.839787  28.921116  0.427726
  7541.043  7541.030  0.500  1.600848  143.699547  28.987839  0.431951
  7545.100  7545.080  0.500  1.597361  143.541697  29.057154  0.436310
  7549.171  7549.150  0.500  1.593959  143.410419  29.129502  0.439426
  7553.256  7553.240  0.500  1.590632  143.269481  29.197859  0.440509
  7557.365  7557.350  0.500  1.587227  143.118118  29.266482  0.438245
  7561.508  7561.480  0.500  1.583673  142.945357  29.335249  0.435462
  7565.661  7565.630  0.500  1.580148  142.804565  29.409831  0.435908
  7569.806  7569.790  0.500  1.576611  142.664499  29.485097  0.440538
  7574.015  7573.980  0.500  1.573148  142.512672  29.555887  0.448816
  7578.213  7578.180  0.500  1.569735  142.343011  29.621621  0.460218
  7582.424  7582.410  0.500  1.566266  142.203704  29.695462  0.472527
  7586.674  7586.650  0.500  1.562534  142.019673  29.767929  0.482080
  7590.912  7590.910  0.500  1.558984  141.812948  29.830310  0.489033
  7595.207  7595.190  0.500  1.555426  141.611895  29.894182  0.492957
  7599.523  7599.490  0.500  1.551800  141.349667  29.947213  0.495485
  7603.830  7603.810  0.500  1.548284  140.804389  29.936767  0.497766
  7608.172  7608.150  0.500  1.544848  140.573365  29.990531  0.503653
  7612.511  7612.510  0.500  1.541094  140.355285  30.056623  0.511055
  7616.910  7616.890  0.500  1.537558  140.319149  30.155317  0.517528
  7621.297  7621.280  0.500  1.533981  140.380289  30.276568  0.520893
  7625.726  7625.700  0.500  1.530370  140.398085  30.389949  0.523289
  7630.153  7630.130  0.500  1.526826  140.319153  30.480694  0.526657
  7634.603  7634.580  0.500  1.523327  140.165540  30.554047  0.533257
  7639.073  7639.050  0.500  1.519651  139.985296  30.627128  0.541645
  7643.564  7643.540  0.500  1.516009  139.818134  30.702167  0.550186
  7648.072  7648.050  0.500  1.512299  139.640852  30.777204  0.557720
  7652.564  7652.580  0.500  1.508846  139.485405  30.849304  0.563034
  7657.138  7657.130  0.500  1.504922  139.303369  30.930169  0.567628
  7661.718  7661.700  0.500  1.501404  139.123162  30.999027  0.571148
  7666.277  7666.280  0.500  1.497705  139.285621  31.150232  0.574377
  7670.911  7670.890  0.500  1.494056  139.257655  31.257815  0.576032
  7675.498  7675.510  0.500  1.490560  139.087755  31.329022  0.576886
  7680.146  7680.160  0.500  1.486665  138.852778  31.398146  0.578335
  7684.813  7684.820  0.500  1.483043  138.601867  31.455133  0.581661
  7689.516  7689.500  0.500  1.479315  138.732710  31.602424  0.588913
  7694.184  7694.200  0.500  1.475672  138.429678  31.648500  0.596033
  7698.906  7698.920  0.500  1.471892  138.196019  31.714725  0.603701
  7703.645  7703.660  0.500  1.468118  137.965624  31.781564  0.610635
  7708.427  7708.410  0.500  1.464390  137.867423  31.877561  0.618705
  7713.188  7713.190  0.500  1.460712  137.615428  31.936550  0.626803
  7717.975  7717.990  0.500  1.457067  137.385260  31.999545  0.634860
  7722.793  7722.800  0.500  1.453602  137.292902  32.089028  0.642956
  7727.618  7727.630  0.500  1.450119  137.059775  32.146333  0.648961
  7732.513  7732.490  0.500  1.446450  136.830431  32.210491  0.654394
  7737.351  7737.360  0.500  1.442575  136.520618  32.262332  0.659502
  7742.271  7742.250  0.500  1.438698  136.591493  32.404481  0.667041
  7747.175  7747.160  0.500  1.434846  136.262155  32.451122  0.672761
  7752.111  7752.090  0.500  1.431099  136.082268  32.529930  0.677958
  7757.049  7757.030  0.500  1.427384  135.876552  32.601656  0.684035
  7762.013  7762.000  0.500  1.423517  135.671511  32.678563  0.691657
  7767.005  7766.990  0.500  1.419703  135.435895  32.746489  0.700142
  7772.011  7771.990  0.500  1.415938  135.241967  32.822933  0.708234
  7777.036  7777.020  0.500  1.412117  135.053333  32.902639  0.716454
  7782.040  7782.060  0.500  1.408368  134.837878  32.973536  0.723307
  7787.142  7787.120  0.500  1.404660  134.591277  33.035482  0.730277
  7792.177  7792.200  0.500  1.400871  134.438809  33.123344  0.736876
  7797.279  7797.300  0.500  1.397183  134.230525  33.194231  0.743104
  7802.406  7802.420  0.500  1.393267  134.033627  33.275580  0.748192
  7807.556  7807.560  0.500  1.389362  133.797705  33.346970  0.753495
  7812.705  7812.720  0.500  1.385716  133.580888  33.414542  0.758986
  7817.887  7817.900  0.500  1.381958  133.361283  33.485219  0.764545
  7823.078  7823.090  0.500  1.377951  133.135560  33.562739  0.771335
  7828.293  7828.310  0.500  1.373964  132.940536  33.647475  0.777931
  7833.530  7833.540  0.500  1.370320  132.728457  33.716426  0.784031
  7838.775  7838.790  0.500  1.366510  132.176042  33.704259  0.789003
  7844.048  7844.060  0.500  1.362503  132.326838  33.878201  0.798803
  7849.363  7849.350  0.500  1.358645  132.005904  33.926689  0.805675
  7854.640  7854.660  0.500  1.354766  130.958148  33.788192  0.808112
  7859.988  7859.990  0.500  1.350866  131.612685  34.089784  0.821979
  7865.320  7865.340  0.500  1.347058  131.398711  34.164203  0.831155
  7870.696  7870.710  0.500  1.343100  131.168752  34.239668  0.840073
  7876.064  7876.090  0.500  1.339308  130.966348  34.316704  0.849541
  7881.471  7881.500  0.500  1.335154  130.702314  34.390092  0.858329
  7886.897  7886.920  0.500  1.331384  130.494966  34.465223  0.867106
  7892.349  7892.370  0.500  1.327603  130.258033  34.532952  0.875703
  7897.806  7897.830  0.500  1.323736  129.946489  34.583839  0.883356
  7903.289  7903.310  0.500  1.319902  129.749145  34.663991  0.892438
  7908.786  7908.810  0.500  1.316235  129.534822  34.733842  0.901454
  7914.310  7914.330  0.500  1.312354  129.286943  34.802176  0.909433
  7919.854  7919.870  0.500  1.308087  129.016332  34.877849  0.918287
  7925.434  7925.420  0.500  1.304391  128.774026  34.941254  0.926368
  7930.982  7931.000  0.500  1.300482  128.419699  34.981581  0.934460
  7936.591  7936.600  0.500  1.296631  128.069150  35.020705  0.940980
  7942.182  7942.210  0.500  1.292720  128.095258  35.165090  0.949906
  7947.829  7947.850  0.500  1.288824  127.743991  35.205574  0.956734
  7953.477  7953.500  0.500  1.284916  127.372166  35.240545  0.963278
  7959.149  7959.170  0.500  1.281000  127.107986  35.305438  0.971573
  7964.832  7964.860  0.500  1.277274  126.785541  35.347320  0.979232
