# XDI/1.0 BlueSky/1.10.0 BMM/2023-1.0-py310-tiled
# Beamline.name: BMM (06BM) -- Beamline for Materials Measurement (NIST)
# Beamline.xray_source: NSLS-II three-pole wiggler
# Beamline.collimation: paraboloid mirror, 5 nm Rh on 30 nm Pt
# Beamline.focusing: not in use
# Beamline.harmonic_rejection: flat mirror, Pt stripe, pitch = 7.0 mrad relative to beam
# Beamline.software: Bluesky 1.10.0, Ophyd 1.7.0, DataBroker 2.0.0b13, Python 3.10.8, 2023-1.0-py310-tiled
# Detector.I0: 10 cm N2
# Detector.I1: 25 cm N2
# Detector.I2: 25 cm N2
# Element.symbol: Au
# Element.edge: L3
# Element.reference: Au
# Element.reference_material: Au foil
# Facility.name: NSLS-II
# Facility.energy: 3.0
# Facility.current: 400.1
# Facility.mode: top-off
# Facility.GUP: 301027
# Facility.SAF: 310583
# Facility.cycle: 2023-2
# Mono.name: Si(111)
# Mono.d_spacing: 3.1351860
# Mono.encoder_resolution: 0.0000050 deg/ct
# Mono.angle_offset: 16.0754326 deg
# Mono.scan_mode: pseudo channel cut
# Mono.scan_type: step
# Mono.direction: forward in energy
# Sample.name: AuH2Na3O6S4+, gold thiosulfate
# Sample.prep: powder in BN pellet
# Sample.x: 145.711 mm
# Sample.y: 114.376 mm
# Sample.SDD_position: 205.000 mm
# Scan.experimenters: Bruce Ravel
# Scan.edge_energy: 11918.7
# Scan.start_time: 2023-06-27T18:07:18
# Scan.end_time: 2023-06-27T18:15:05
# Scan.transient_id: 85212
# Scan.uid: f97a18b2-3d75-4ed1-9e51-ecd86bfe2644
# Scan.plot_hint: ln(I0/It)  --  ln($5/$6)
# Column.1: energy eV
# Column.2: requested_energy eV
# Column.3: measurement_time seconds
# Column.4: xmu 
# Column.5: I0 nA
# Column.6: It nA
# Column.7: Ir nA
# ///////////
# Welcome to BMM
# -----------
# energy  requested_energy  measurement_time  xmu  I0  It  Ir
  11718.672  11718.700  0.500  0.860827  64.613968  27.319585  17.376070
  11728.729  11728.700  0.500  0.857200  64.479623  27.361847  17.420355
  11738.726  11738.700  0.500  0.853640  64.333902  27.397375  17.463370
  11748.716  11748.700  0.500  0.850114  64.115720  27.400901  17.484613
  11758.729  11758.700  0.500  0.846670  63.869207  27.389700  17.497792
  11768.753  11768.700  0.500  0.843073  63.930824  27.514918  17.595382
  11778.795  11778.700  0.500  0.839458  63.611574  27.476684  17.587380
  11788.727  11788.700  0.500  0.836032  63.669878  27.596236  17.684554
  11798.736  11798.700  0.500  0.832454  63.531471  27.634950  17.727186
  11808.788  11808.700  0.500  0.829124  63.370591  27.656931  17.759173
  11818.704  11818.700  0.500  0.825833  63.230091  27.686571  17.796737
  11828.711  11828.700  0.500  0.822740  63.072682  27.703184  17.827205
  11838.753  11838.700  0.500  0.819583  62.992202  27.755339  17.877540
  11848.733  11848.700  0.500  0.816622  62.678527  27.699024  17.856204
  11858.736  11858.700  0.500  0.813770  62.627678  27.755581  17.904317
  11868.732  11868.700  0.500  0.811419  62.604366  27.810565  17.951443
  11878.727  11878.700  0.500  0.809721  62.459479  27.793359  17.945681
  11888.738  11888.700  0.500  0.809621  62.284948  27.718477  17.897139
  11890.670  11890.700  0.500  0.809575  62.262572  27.709789  17.886363
  11892.670  11892.700  0.500  0.810010  62.241483  27.688343  17.869624
  11894.671  11894.700  0.500  0.810646  62.217820  27.660233  17.850235
  11896.672  11896.700  0.500  0.811443  62.187954  27.624911  17.820867
  11898.669  11898.700  0.500  0.812499  62.154883  27.581095  17.783940
  11900.665  11900.700  0.500  0.813775  62.038577  27.494379  17.715603
  11902.681  11902.700  0.500  0.815769  61.450502  27.179498  17.500526
  11904.685  11904.700  0.500  0.818198  62.034940  27.371424  17.603830
  11906.665  11906.700  0.500  0.821425  62.057359  27.293096  17.531101
  11908.671  11908.700  0.500  0.825822  62.031116  27.161856  17.413657
  11908.955  11909.000  0.500  0.826585  62.028426  27.139963  17.393107
  11909.245  11909.300  0.500  0.827409  62.022376  27.114989  17.368899
  11909.548  11909.600  0.500  0.828408  62.012303  27.083513  17.342549
  11909.862  11909.900  0.500  0.829401  62.026628  27.062876  17.321513
  11910.165  11910.200  0.500  0.830282  62.006685  27.030352  17.294213
  11910.461  11910.500  0.500  0.831378  62.003909  26.999524  17.266943
  11910.764  11910.800  0.500  0.832528  62.004747  26.968870  17.238809
  11911.072  11911.100  0.500  0.833631  62.001606  26.937760  17.210456
  11911.375  11911.400  0.500  0.834874  62.001349  26.904199  17.178050
  11911.671  11911.700  0.500  0.836108  61.985381  26.864094  17.144231
  11911.968  11912.000  0.500  0.837364  61.979054  26.827625  17.108816
  11912.283  11912.300  0.500  0.838982  61.976030  26.782963  17.072190
  11912.567  11912.600  0.500  0.840316  61.971324  26.745221  17.035506
  11912.882  11912.900  0.500  0.842012  61.964292  26.696877  16.992015
  11913.178  11913.200  0.500  0.843794  61.967544  26.650738  16.951113
  11913.469  11913.500  0.500  0.845435  61.959013  26.603382  16.906256
  11913.778  11913.800  0.500  0.847575  61.950788  26.542973  16.849379
  11914.068  11914.100  0.500  0.849614  61.943180  26.485650  16.800947
  11914.383  11914.400  0.500  0.851877  61.935272  26.422417  16.740555
  11914.680  11914.700  0.500  0.854373  61.923145  26.351393  16.678062
  11914.964  11915.000  0.500  0.856800  61.909680  26.281805  16.611750
  11915.279  11915.300  0.500  0.859739  61.888392  26.195666  16.533396
  11915.563  11915.600  0.500  0.862620  61.862709  26.109457  16.455433
  11915.878  11915.900  0.500  0.866024  61.825289  26.005002  16.362422
  11916.175  11916.200  0.500  0.869542  61.730340  25.873879  16.249937
  11916.472  11916.500  0.500  0.873543  61.594047  25.713654  16.117141
  11916.787  11916.800  0.500  0.877867  61.467415  25.550073  15.980597
  11917.077  11917.100  0.500  0.882461  61.335610  25.378429  15.837472
  11917.386  11917.400  0.500  0.887736  61.247391  25.208614  15.688830
  11917.689  11917.700  0.500  0.892999  61.220600  25.065299  15.556131
  11917.998  11918.000  0.500  0.899324  61.263179  24.924605  15.415018
  11918.283  11918.300  0.500  0.905700  61.349654  24.801135  15.286079
  11918.598  11918.600  0.500  0.913163  61.445684  24.655269  15.132845
  11918.901  11918.900  0.500  0.921017  61.559972  24.507873  14.978604
  11919.204  11919.200  0.500  0.930103  61.670550  24.329849  14.796345
  11919.488  11919.500  0.500  0.939527  61.745477  24.130907  14.597374
  11919.810  11919.800  0.500  0.951340  61.797412  23.867588  14.344564
  11920.094  11920.100  0.500  0.963254  61.828635  23.596832  14.090331
  11920.404  11920.400  0.500  0.977573  61.838328  23.265007  13.787621
  11920.694  11920.700  0.500  0.992671  61.838507  22.916466  13.472302
  11921.003  11921.000  0.500  1.010759  61.850690  22.510095  13.118775
  11921.294  11921.300  0.500  1.029566  61.834254  22.084852  12.758633
  11921.603  11921.600  0.500  1.051521  61.833887  21.605131  12.359275
  11921.882  11921.900  0.500  1.073990  61.833188  21.124857  11.978474
  11922.197  11922.200  0.500  1.100430  61.839057  20.575594  11.554647
  11922.488  11922.500  0.500  1.126717  61.823201  20.036627  11.152286
  11922.785  11922.800  0.500  1.156432  61.828349  19.451607  10.733313
  11923.088  11923.100  0.500  1.185982  61.813533  18.880708  10.333474
  11923.385  11923.400  0.500  1.214701  61.814170  18.346360  9.968585
  11923.695  11923.700  0.500  1.241422  61.805999  17.860262  9.642556
  11923.979  11924.000  0.500  1.265994  61.805953  17.426742  9.357935
  11924.295  11924.300  0.500  1.288551  61.794642  17.034922  9.102417
  11924.604  11924.600  0.500  1.306743  61.795415  16.728029  8.903194
  11924.901  11924.900  0.500  1.321316  61.794191  16.485707  8.744480
  11925.198  11925.200  0.500  1.332615  61.787688  16.298766  8.622608
  11925.508  11925.500  0.500  1.341203  61.784565  16.158577  8.528980
  11925.799  11925.800  0.500  1.346892  61.779273  16.065533  8.465297
  11926.114  11926.100  0.500  1.351252  61.774494  15.994405  8.416173
  11926.399  11926.400  0.500  1.354407  61.772209  15.943432  8.382636
  11926.709  11926.700  0.500  1.357372  61.760840  15.893304  8.351141
  11926.994  11927.000  0.500  1.360266  61.761653  15.847579  8.323774
  11927.291  11927.300  0.500  1.363792  61.753423  15.789690  8.294008
  11927.594  11927.600  0.500  1.367780  61.752862  15.726706  8.261021
  11927.891  11927.900  0.500  1.371961  61.745135  15.659126  8.226330
  11928.189  11928.200  0.500  1.376512  61.742042  15.587253  8.188621
  11928.480  11928.500  0.500  1.380865  61.739309  15.518853  8.152028
  11928.796  11928.800  0.500  1.385433  61.731501  15.446168  8.113586
  11929.080  11929.100  0.500  1.389279  61.728095  15.386027  8.080423
  11929.390  11929.400  0.500  1.392594  61.717592  15.332503  8.048413
  11929.687  11929.700  0.500  1.395560  61.723431  15.288537  8.020663
  11929.997  11930.000  0.500  1.398097  61.710462  15.246594  7.992906
  11930.301  11930.300  0.500  1.400526  61.701213  15.207335  7.965882
  11930.598  11930.600  0.500  1.402320  61.695553  15.178674  7.943733
  11930.908  11930.900  0.500  1.404122  61.689177  15.149789  7.917256
  11931.205  11931.200  0.500  1.405932  61.685302  15.121444  7.892245
  11931.521  11931.500  0.500  1.407448  61.682970  15.097970  7.868938
  11931.800  11931.800  0.500  1.409055  61.678727  15.072688  7.845493
  11932.116  11932.100  0.500  1.410406  61.665266  15.049045  7.818915
  11932.407  11932.400  0.500  1.411322  61.661491  15.034343  7.801011
  11932.711  11932.700  0.500  1.412387  61.648076  15.015075  7.777496
  11932.996  11933.000  0.500  1.413122  61.639236  15.001891  7.759017
  11933.306  11933.300  0.500  1.413500  61.615839  14.990528  7.740449
  11933.597  11933.600  0.500  1.414005  61.584678  14.975391  7.722260
  11933.882  11933.900  0.500  1.414260  61.522332  14.956407  7.703692
  11934.192  11934.200  0.500  1.414201  61.390462  14.925241  7.676821
  11934.490  11934.500  0.500  1.414125  61.227479  14.886749  7.646721
  11934.787  11934.800  0.500  1.413921  61.078566  14.853560  7.622942
  11935.085  11935.100  0.500  1.413929  60.976692  14.828680  7.604673
  11935.401  11935.400  0.500  1.413576  60.938598  14.824648  7.595250
  11935.680  11935.700  0.500  1.413270  60.951718  14.832373  7.594794
  11935.996  11936.000  0.500  1.413069  61.010849  14.849750  7.599084
  11936.294  11936.300  0.500  1.412832  61.100225  14.875020  7.607060
  11936.610  11936.600  0.500  1.412764  61.216127  14.904257  7.619812
  11936.908  11936.900  0.500  1.412756  61.329508  14.931983  7.631070
  11937.212  11937.200  0.500  1.413001  61.438575  14.954862  7.641743
  11937.503  11937.500  0.500  1.413438  61.482935  14.959132  7.642310
  11937.807  11937.800  0.500  1.414154  61.518235  14.957006  7.638598
  11938.105  11938.100  0.500  1.415055  61.594349  14.962025  7.638911
  11938.409  11938.400  0.500  1.416284  61.740007  14.978991  7.644883
  11938.694  11938.700  0.500  1.417876  61.746312  14.956682  7.630257
  11939.017  11939.000  0.500  1.419692  61.740718  14.928200  7.612784
  11939.309  11939.300  0.500  1.421653  61.746147  14.900259  7.595225
  11939.600  11939.600  0.500  1.423720  61.739483  14.867887  7.574039
  11939.892  11939.900  0.500  1.426029  61.735762  14.832700  7.553811
  11940.190  11940.200  0.500  1.428278  61.738141  14.799953  7.532603
  11940.488  11940.500  0.500  1.430392  61.737986  14.768662  7.511511
  11940.779  11940.800  0.500  1.432379  61.721193  14.735342  7.489092
  11941.083  11941.100  0.500  1.434292  61.715440  14.705798  7.469506
  11941.381  11941.400  0.500  1.436006  61.711964  14.679793  7.453245
  11941.704  11941.700  0.500  1.437761  61.709019  14.653357  7.436687
  11941.983  11942.000  0.500  1.438925  61.705576  14.635492  7.424578
  11942.300  11942.300  0.500  1.440045  61.702671  14.618419  7.410723
  11942.604  11942.600  0.500  1.440891  61.703539  14.606256  7.399722
  11942.908  11942.900  0.500  1.441543  61.695325  14.594793  7.389276
  11943.200  11943.200  0.500  1.442072  61.695654  14.587155  7.379841
  11943.517  11943.500  0.500  1.442419  61.688717  14.580454  7.366307
  11943.709  11943.700  0.500  1.442749  61.676495  14.572764  7.357500
  11944.721  11944.690  0.500  1.444296  61.667166  14.548032  7.299603
  11945.709  11945.690  0.500  1.446885  61.654994  14.507546  7.218180
  11946.721  11946.710  0.500  1.451074  61.641899  14.443842  7.118067
  11947.753  11947.760  0.500  1.456816  61.623078  14.356759  7.022859
  11948.834  11948.820  0.500  1.462561  61.605905  14.270531  6.960702
  11949.928  11949.900  0.500  1.467317  61.598418  14.201098  6.938813
  11951.028  11951.000  0.500  1.470602  61.579374  14.150146  6.950692
  11952.135  11952.120  0.500  1.472511  61.566639  14.120237  6.983583
  11953.260  11953.260  0.500  1.472974  61.543995  14.108515  7.018333
  11954.411  11954.410  0.500  1.473135  61.530078  14.103052  7.036060
  11955.611  11955.590  0.500  1.473474  61.519234  14.095783  7.043736
  11956.812  11956.780  0.500  1.474652  61.501092  14.075043  7.040964
  11958.026  11958.000  0.500  1.476794  61.482581  14.040689  7.031969
  11959.252  11959.230  0.500  1.480160  61.471518  13.991002  7.019809
  11960.497  11960.480  0.500  1.484228  61.451630  13.929687  6.996634
  11961.761  11961.750  0.500  1.488614  61.431649  13.864220  6.958887
  11963.057  11963.040  0.500  1.492972  61.408099  13.798633  6.910127
  11964.359  11964.350  0.500  1.496978  61.389745  13.739362  6.854493
  11965.693  11965.680  0.500  1.500259  61.367608  13.689415  6.798331
  11967.033  11967.030  0.500  1.502328  61.351308  13.657489  6.751475
  11968.404  11968.400  0.500  1.503421  61.341933  13.640496  6.712835
  11969.795  11969.780  0.500  1.503866  61.316364  13.628737  6.684497
  11971.211  11971.190  0.500  1.503940  61.298719  13.623807  6.667539
  11972.639  11972.610  0.500  1.503349  61.272318  13.625999  6.668286
  11974.050  11974.050  0.500  1.502854  61.244579  13.626572  6.682168
  11975.504  11975.510  0.500  1.502161  61.227723  13.632259  6.703826
  11977.008  11976.990  0.500  1.501085  61.214722  13.644045  6.728879
  11978.501  11978.490  0.500  1.498967  61.191925  13.667871  6.757613
  11980.031  11980.010  0.500  1.495681  61.174190  13.708881  6.790608
  11981.550  11981.550  0.500  1.491112  61.142406  13.764510  6.831562
  11983.100  11983.110  0.500  1.486081  61.119820  13.828831  6.874001
  11984.694  11984.680  0.500  1.480742  61.092942  13.896738  6.916554
  11986.288  11986.280  0.500  1.476084  61.077091  13.958001  6.955033
  11987.896  11987.890  0.500  1.472150  61.056212  14.008223  6.993160
  11989.516  11989.530  0.500  1.468319  61.032202  14.056469  7.031880
  11991.181  11991.180  0.500  1.464774  61.007122  14.100584  7.069574
  11992.865  11992.850  0.500  1.462260  60.984251  14.130781  7.097864
  11994.555  11994.540  0.500  1.460102  60.960517  14.155800  7.115334
  11996.234  11996.250  0.500  1.458583  60.935431  14.171484  7.124490
  11997.963  11997.980  0.500  1.457366  60.910540  14.182950  7.126089
  11999.737  11999.730  0.500  1.456421  60.891438  14.191898  7.122303
  12001.511  12001.490  0.500  1.455803  60.871415  14.196013  7.115042
  12003.273  12003.280  0.500  1.455036  60.842383  14.200129  7.099763
  12005.080  12005.080  0.500  1.454315  60.820554  14.205267  7.086810
  12006.887  12006.910  0.500  1.453339  60.793318  14.212775  7.075411
  12008.726  12008.750  0.500  1.452320  60.768276  14.221405  7.069000
  12010.578  12010.610  0.500  1.451381  60.751755  14.230893  7.069869
  12012.494  12012.490  0.500  1.450802  60.728041  14.233579  7.074073
  12014.448  12014.390  0.500  1.450681  60.686871  14.225647  7.077103
  12016.277  12016.310  0.500  1.450826  60.657203  14.216623  7.080501
  12018.559  12018.250  0.500  1.451941  60.627968  14.193937  7.079040
  12020.326  12020.210  0.500  1.453275  60.612572  14.171426  7.076612
  12022.194  12022.180  0.500  1.455036  60.578109  14.138447  7.065767
  12024.189  12024.180  0.500  1.457507  60.553851  14.097908  7.049346
  12026.198  12026.190  0.500  1.460192  60.522873  14.052910  7.028778
  12028.238  12028.220  0.500  1.463064  60.498137  14.006880  7.006043
  12030.285  12030.280  0.500  1.465905  60.472112  13.961137  6.984078
  12032.352  12032.350  0.500  1.468171  60.445390  13.923383  6.966175
  12034.432  12034.440  0.500  1.469736  60.405229  13.892369  6.955348
  12036.564  12036.550  0.500  1.470312  60.381061  13.878820  6.952694
  12038.690  12038.680  0.500  1.469876  60.348967  13.877493  6.961117
  12040.829  12040.820  0.500  1.468175  60.316952  13.893740  6.979236
  12042.994  12042.990  0.500  1.465096  60.284205  13.929016  7.004081
  12045.167  12045.180  0.500  1.461643  60.212828  13.960642  7.029743
  12047.384  12047.380  0.500  1.457235  59.055580  13.752828  6.933189
  12049.622  12049.600  0.500  1.453418  59.260219  13.853253  6.989686
  12051.866  12051.850  0.500  1.449070  60.076503  14.105273  7.118410
  12054.111  12054.110  0.500  1.445114  60.096053  14.165795  7.147758
  12056.389  12056.390  0.500  1.441822  60.073589  14.207186  7.166194
  12058.687  12058.690  0.500  1.438952  60.045736  14.241418  7.177954
  12061.023  12061.010  0.500  1.436673  60.017023  14.267090  7.185254
  12063.367  12063.350  0.500  1.435096  59.992127  14.283674  7.189563
  12065.712  12065.700  0.500  1.433954  59.957057  14.291631  7.190098
  12068.076  12068.080  0.500  1.433121  59.933278  14.297874  7.190285
  12070.473  12070.470  0.500  1.432787  59.906449  14.296253  7.188772
  12072.897  12072.890  0.500  1.432441  59.865930  14.291525  7.185398
  12075.328  12075.320  0.500  1.432332  59.831776  14.284920  7.180930
  12077.773  12077.770  0.500  1.432422  59.803640  14.276918  7.176035
  12080.257  12080.250  0.500  1.432261  59.770929  14.271408  7.175543
  12082.735  12082.740  0.500  1.432277  59.732933  14.262118  7.175669
  12085.253  12085.250  0.500  1.432104  59.702106  14.257220  7.174620
  12087.784  12087.770  0.500  1.432005  59.659432  14.248441  7.169883
  12090.342  12090.320  0.500  1.432005  59.622769  14.239687  7.166614
  12092.888  12092.890  0.500  1.432011  59.415842  14.190176  7.141491
  12095.480  12095.470  0.500  1.431990  59.569128  14.227081  7.159964
  12098.099  12098.080  0.500  1.432322  59.536224  14.214503  7.156165
  12100.713  12100.700  0.500  1.432798  59.498359  14.198704  7.154795
  12103.353  12103.350  0.500  1.433258  59.467121  14.184725  7.158338
  12106.013  12106.010  0.500  1.434056  59.425963  14.163597  7.160252
  12108.694  12108.690  0.500  1.434400  59.393311  14.150953  7.162061
  12111.408  12111.390  0.500  1.434612  59.359871  14.139979  7.166744
  12114.116  12114.110  0.500  1.434322  59.320532  14.134714  7.168135
  12116.852  12116.850  0.500  1.433861  59.286335  14.133080  7.171078
  12119.589  12119.600  0.500  1.433032  59.250131  14.136159  7.175096
  12122.378  12122.380  0.500  1.431681  59.204900  14.144462  7.182248
  12125.168  12125.170  0.500  1.430144  59.167994  14.157386  7.188492
  12127.973  12127.990  0.500  1.428636  59.099154  14.162262  7.191984
  12130.836  12130.820  0.500  1.426763  59.023007  14.170533  7.194865
  12133.682  12133.670  0.500  1.424898  59.067887  14.207783  7.211555
  12136.542  12136.550  0.500  1.423049  59.025242  14.223800  7.216278
  12139.429  12139.440  0.500  1.421244  58.991180  14.241268  7.219105
  12142.369  12142.350  0.500  1.419349  58.943871  14.256843  7.223915
  12145.278  12145.270  0.500  1.417404  58.900671  14.274129  7.226465
  12148.208  12148.220  0.500  1.415462  58.859014  14.291752  7.230461
  12151.197  12151.190  0.500  1.413596  58.817722  14.308412  7.237842
  12154.193  12154.170  0.500  1.411752  58.781032  14.325871  7.247655
  12157.186  12157.180  0.500  1.409936  58.730170  14.339494  7.260244
  12160.198  12160.200  0.500  1.408069  58.677813  14.353486  7.272641
  12163.271  12163.250  0.500  1.406480  58.442290  14.318607  7.264926
  12166.312  12166.310  0.500  1.405011  58.618752  14.382955  7.308906
  12169.394  12169.390  0.500  1.403616  58.576209  14.392577  7.324577
  12172.504  12172.490  0.500  1.402427  58.528144  14.397875  7.339427
  12175.627  12175.610  0.500  1.401490  58.488242  14.401556  7.349526
  12178.753  12178.750  0.500  1.400855  58.441620  14.399205  7.356390
  12181.919  12181.900  0.500  1.400384  58.398417  14.395345  7.356094
  12185.106  12185.080  0.500  1.400036  58.357061  14.390161  7.354393
  12188.268  12188.270  0.500  1.399947  58.315278  14.381129  7.351110
  12191.510  12191.490  0.500  1.399547  58.263577  14.374135  7.347148
  12194.741  12194.720  0.500  1.399539  58.219274  14.363310  7.344428
  12197.987  12197.970  0.500  1.399108  58.170961  14.357580  7.346581
  12201.247  12201.250  0.500  1.398892  57.908980  14.296017  7.318784
  12204.567  12204.540  0.500  1.398252  58.096238  14.351416  7.349146
  12207.857  12207.850  0.500  1.397644  58.057455  14.350555  7.347162
  12211.188  12211.170  0.500  1.396500  58.010266  14.355305  7.348734
  12214.553  12214.520  0.500  1.395442  57.967895  14.360013  7.347543
  12217.893  12217.890  0.500  1.393961  57.922962  14.370143  7.351255
  12221.288  12221.270  0.500  1.392424  57.883371  14.382420  7.355933
  12224.698  12224.680  0.500  1.390649  57.835308  14.396006  7.362129
  12228.096  12228.100  0.500  1.388836  57.789390  14.410681  7.371987
  12231.568  12231.550  0.500  1.387051  57.738987  14.423825  7.381719
  12235.042  12235.010  0.500  1.385151  56.560146  14.156207  7.253169
  12238.505  12238.490  0.500  1.383314  57.501351  14.418242  7.395876
  12242.036  12241.990  0.500  1.381420  57.569237  14.462632  7.428530
  12245.542  12245.510  0.500  1.379693  57.542845  14.480996  7.447767
  12249.063  12249.050  0.500  1.377817  57.493147  14.495647  7.462879
  12252.632  12252.600  0.500  1.376053  57.449214  14.510150  7.474683
  12256.204  12256.180  0.500  1.374433  57.263301  14.486638  7.467533
  12259.797  12259.780  0.500  1.372779  57.343169  14.530858  7.493538
  12263.418  12263.390  0.500  1.371047  56.823335  14.424097  7.439968
  12267.035  12267.020  0.500  1.369623  56.993839  14.487991  7.478284
  12270.694  12270.680  0.500  1.368021  57.050082  14.525539  7.498715
  12274.374  12274.350  0.500  1.366337  57.148654  14.575162  7.526893
  12278.044  12278.040  0.500  1.365006  57.101492  14.582537  7.534899
  12281.755  12281.750  0.500  1.363394  57.040747  14.590525  7.543403
  12285.494  12285.480  0.500  1.362418  56.931850  14.576877  7.539494
  12289.223  12289.220  0.500  1.360937  56.916848  14.594641  7.549765
  12293.007  12292.990  0.500  1.359853  56.636672  14.538555  7.521245
  12296.787  12296.780  0.500  1.358877  56.983519  14.641861  7.577515
  12300.575  12300.580  0.500  1.357886  56.878177  14.629298  7.571378
  12304.439  12304.410  0.500  1.356943  56.910968  14.651533  7.584363
  12308.258  12308.250  0.500  1.355642  56.855265  14.656253  7.587102
  12312.127  12312.110  0.500  1.354505  56.804680  14.659863  7.590810
  12316.004  12315.990  0.500  1.353656  56.749475  14.658054  7.593683
  12319.897  12319.890  0.500  1.352458  56.289524  14.556694  7.547853
  12323.833  12323.810  0.500  1.351205  56.428168  14.610842  7.580510
  12327.744  12327.750  0.500  1.349985  56.558580  14.662474  7.614771
  12331.731  12331.710  0.500  1.348602  56.520790  14.672959  7.627771
  12335.687  12335.680  0.500  1.347208  56.476920  14.682028  7.639825
  12339.699  12339.680  0.500  1.345726  56.424279  14.690091  7.653726
  12343.720  12343.690  0.500  1.344222  56.376326  14.699697  7.663772
  12347.731  12347.730  0.500  1.342564  56.312252  14.707357  7.674207
  12351.810  12351.780  0.500  1.340877  56.265458  14.719945  7.682751
  12355.859  12355.850  0.500  1.339211  56.205290  14.728727  7.691739
  12359.958  12359.940  0.500  1.337370  56.170273  14.746670  7.701109
  12364.079  12364.050  0.500  1.335552  56.039600  14.739147  7.699332
  12368.183  12368.180  0.500  1.333643  56.065122  14.774023  7.720730
  12372.363  12372.330  0.500  1.331760  55.958834  14.773816  7.721866
  12376.499  12376.490  0.500  1.329907  55.953136  14.799710  7.738094
  12380.705  12380.680  0.500  1.327992  55.880914  14.808939  7.745924
  12384.893  12384.880  0.500  1.326186  55.455093  14.722651  7.704174
  12389.125  12389.110  0.500  1.324370  55.804316  14.842299  7.769690
  12393.366  12393.350  0.500  1.322543  55.746578  14.854051  7.779359
  12397.617  12397.610  0.500  1.320703  55.681652  14.864080  7.789176
  12401.924  12401.890  0.500  1.319155  55.628342  14.872851  7.797058
  12406.188  12406.190  0.500  1.317633  55.569979  14.879879  7.807810
  12410.542  12410.510  0.500  1.315938  55.491915  14.884188  7.814090
  12414.878  12414.850  0.500  1.314503  55.453155  14.895148  7.826231
  12419.218  12419.210  0.500  1.313180  55.396601  14.899656  7.833349
  12423.635  12423.590  0.500  1.311620  55.314185  14.900714  7.839752
  12427.994  12427.980  0.500  1.310131  55.276281  14.912690  7.852738
  12432.411  12432.400  0.500  1.308704  55.199664  14.913291  7.858882
  12436.851  12436.830  0.500  1.307250  54.775897  14.820331  7.815914
  12441.314  12441.280  0.500  1.305846  55.113944  14.932743  7.881773
  12445.780  12445.750  0.500  1.304477  55.063300  14.939465  7.891341
  12450.243  12450.240  0.500  1.302866  54.991906  14.944149  7.898410
  12454.784  12454.750  0.500  1.301460  54.878075  14.934205  7.896359
  12459.301  12459.280  0.500  1.299597  54.875880  14.961452  7.912842
  12463.848  12463.830  0.500  1.298176  54.816139  14.966412  7.922707
  12468.433  12468.400  0.500  1.296369  54.720653  14.967363  7.925130
  12473.014  12472.980  0.500  1.294643  54.700421  14.987684  7.938050
  12477.626  12477.590  0.500  1.292811  54.634952  14.997196  7.949723
  12482.234  12482.210  0.500  1.291028  54.560500  15.003478  7.955857
  12486.893  12486.860  0.500  1.289332  54.238744  14.940324  7.925825
  12491.549  12491.520  0.500  1.287345  54.476725  15.035716  7.979263
  12496.229  12496.200  0.500  1.285548  54.412675  15.045053  7.989568
  12500.920  12500.900  0.500  1.283538  54.348679  15.057595  7.999262
  12505.648  12505.620  0.500  1.281755  54.285668  15.066982  8.012325
  12510.400  12510.360  0.500  1.279808  54.222221  15.078697  8.021491
  12515.135  12515.110  0.500  1.277767  54.158378  15.091714  8.034681
  12519.922  12519.890  0.500  1.275942  54.098765  15.102635  8.047191
  12524.726  12524.690  0.500  1.273957  54.035000  15.114815  8.058169
  12529.527  12529.500  0.500  1.272184  53.968281  15.122928  8.069977
  12534.359  12534.330  0.500  1.270227  53.900608  15.133553  8.080374
  12539.216  12539.190  0.500  1.268244  53.784817  15.131019  8.085307
  12544.090  12544.060  0.500  1.266543  53.797196  15.160273  8.107370
  12548.982  12548.950  0.500  1.264605  53.724138  15.169050  8.118267
  12553.911  12553.860  0.500  1.262768  53.657639  15.178140  8.128628
  12558.838  12558.790  0.500  1.261028  53.597988  15.187668  8.139468
  12563.769  12563.730  0.500  1.259236  53.532848  15.196407  8.148611
  12568.745  12568.700  0.500  1.257379  53.469118  15.206538  8.160881
  12573.718  12573.690  0.500  1.255698  53.407963  15.214690  8.168838
  12578.737  12578.690  0.500  1.254010  53.330520  15.218307  8.175303
  12583.766  12583.720  0.500  1.252167  53.274286  15.230302  8.186288
  12588.806  12588.760  0.500  1.250251  53.202462  15.238933  8.194455
  12593.885  12593.820  0.500  1.248618  53.138247  15.245420  8.202465
  12598.913  12598.900  0.500  1.246849  53.070373  15.252901  8.210299
  12604.063  12604.000  0.500  1.245064  53.005173  15.261388  8.220071
  12609.148  12609.120  0.500  1.243238  52.941693  15.270970  8.229160
  12614.299  12614.260  0.500  1.241385  52.878440  15.281005  8.239296
  12619.475  12619.420  0.500  1.239446  52.809092  15.290579  8.251498
  12624.614  12624.600  0.500  1.237450  52.732488  15.298913  8.260938
  12629.834  12629.790  0.500  1.235696  52.655771  15.303480  8.269899
  12635.037  12635.010  0.500  1.233644  52.546453  15.303065  8.275393
  12640.293  12640.240  0.500  1.231839  52.552267  15.332417  8.297928
  12645.505  12645.490  0.500  1.229712  52.473637  15.342078  8.310694
  12650.798  12650.760  0.500  1.227741  52.411965  15.354281  8.322703
  12656.081  12656.050  0.500  1.225648  52.354364  15.369537  8.336223
  12661.411  12661.360  0.500  1.223770  52.289213  15.379267  8.349969
  12666.738  12666.690  0.500  1.221692  52.222440  15.391571  8.360023
  12672.084  12672.040  0.500  1.219667  52.155035  15.402863  8.373168
  12677.449  12677.410  0.500  1.217554  52.088810  15.415842  8.385768
  12682.818  12682.790  0.500  1.215513  52.019527  15.426801  8.399746
  12688.255  12688.200  0.500  1.213464  51.951863  15.438329  8.409961
  12693.654  12693.620  0.500  1.211474  51.885537  15.449334  8.421129
  12699.108  12699.070  0.500  1.209452  51.805740  15.456804  8.431444
  12704.559  12704.530  0.500  1.207430  51.737683  15.467736  8.442219
  12710.036  12710.010  0.500  1.205540  51.671668  15.477226  8.454158
  12715.546  12715.510  0.500  1.203532  51.609356  15.489634  8.465758
  12721.061  12721.030  0.500  1.201516  51.535257  15.498605  8.475509
  12726.623  12726.570  0.500  1.199455  51.458231  15.507375  8.484523
  12732.154  12732.120  0.500  1.197487  51.378236  15.513768  8.493969
  12737.747  12737.700  0.500  1.195526  50.718329  15.344564  8.405956
  12743.338  12743.300  0.500  1.193600  51.258471  15.537881  8.518913
  12748.955  12748.910  0.500  1.191735  51.190195  15.546149  8.531054
  12754.591  12754.550  0.500  1.189757  51.122158  15.556230  8.540496
  12760.247  12760.200  0.500  1.187763  51.041203  15.562588  8.550152
  12765.922  12765.870  0.500  1.185638  50.972966  15.574850  8.563821
  12771.588  12771.560  0.500  1.183794  50.909293  15.584106  8.576916
