# XDI/1.0 BlueSky/1.10.0 BMM/2023-1.0-py310-tiled
# Beamline.name: BMM (06BM) -- Beamline for Materials Measurement (NIST)
# Beamline.xray_source: NSLS-II three-pole wiggler
# Beamline.collimation: paraboloid mirror, 5 nm Rh on 30 nm Pt
# Beamline.focusing: not in use
# Beamline.harmonic_rejection: flat mirror, Si stripe, pitch = 7.0 mrad relative to beam
# Beamline.software: Bluesky 1.10.0, Ophyd 1.7.0, DataBroker 2.0.0b13, Python 3.10.8, 2023-1.0-py310-tiled
# Detector.I0: 10 cm N2
# Detector.I1: 25 cm N2
# Detector.I2: 25 cm N2
# Element.symbol: Pr
# Element.edge: L1
# Element.reference: Pr
# Element.reference_material: Pr6O11
# Facility.name: NSLS-II
# Facility.energy: 3.0
# Facility.current: 400.0
# Facility.mode: top-off
# Facility.GUP: 123456
# Facility.SAF: 301027
# Facility.cycle: 2023-2
# Mono.name: Si(111)
# Mono.d_spacing: 3.1351860
# Mono.encoder_resolution: 0.0000050 deg/ct
# Mono.angle_offset: 16.0754326 deg
# Mono.scan_mode: pseudo channel cut
# Mono.scan_type: step
# Mono.direction: forward in energy
# Sample.name: Pr2TiO5
# Sample.prep: Powder in PEG pellet
# Sample.x: 149.848 mm
# Sample.y: 114.690 mm
# Sample.SDD_position: 205.000 mm
# Scan.experimenters: Bruce Ravel
# Scan.edge_energy: 6834.8
# Scan.start_time: 2023-05-08T20:02:53
# Scan.end_time: 2023-05-08T20:08:50
# Scan.transient_id: 75564
# Scan.uid: 6aa98774-e54b-418d-b6aa-671c3be0bbc0
# Scan.plot_hint: ln(I0/It)  --  ln($5/$6)
# Column.1: energy eV
# Column.2: requested_energy eV
# Column.3: measurement_time seconds
# Column.4: xmu 
# Column.5: I0 nA
# Column.6: It nA
# Column.7: Ir nA
# ///////////
# sample courtesy Martin Stennett, University of Sheffield
# -----------
# energy  requested_energy  measurement_time  xmu  I0  It  Ir
  6634.803  6634.800  0.500  2.069936  150.980894  19.052852  0.581035
  6644.809  6644.800  0.500  2.060339  151.111759  19.253269  0.597254
  6654.815  6654.800  0.500  2.051025  151.221248  19.447505  0.611922
  6664.810  6664.800  0.500  2.041441  151.366498  19.653643  0.624629
  6674.829  6674.800  0.500  2.031789  151.498002  19.861499  0.636492
  6684.804  6684.800  0.500  2.021549  151.637186  20.084360  0.652368
  6694.825  6694.800  0.500  2.011756  151.770464  20.299853  0.669162
  6704.816  6704.800  0.500  2.002394  151.871154  20.504373  0.684326
  6714.818  6714.800  0.500  1.992999  151.996428  20.714993  0.697376
  6724.812  6724.800  0.500  1.983544  152.113005  20.927823  0.710646
  6734.812  6734.800  0.500  1.974255  152.216981  21.137574  0.727306
  6744.811  6744.800  0.500  1.964666  152.306551  21.353794  0.745670
  6754.812  6754.800  0.500  1.955280  152.412773  21.570197  0.763645
  6764.811  6764.800  0.500  1.946285  152.512160  21.779282  0.779588
  6774.809  6774.800  0.500  1.937143  152.608768  21.993230  0.794311
  6784.810  6784.800  0.500  1.927829  152.729463  22.216591  0.809763
  6794.774  6794.800  0.500  1.918429  146.411468  21.498683  0.794149
  6804.788  6804.800  0.500  1.910063  152.522964  22.584247  0.843342
  6806.779  6806.800  0.500  1.908055  152.545445  22.632970  0.846753
  6808.781  6808.800  0.500  1.906198  152.418867  22.656229  0.850239
  6810.783  6810.800  0.500  1.904302  146.901755  21.877573  0.822433
  6812.809  6812.800  0.500  1.902804  151.448211  22.588470  0.851002
  6814.802  6814.800  0.500  1.901146  152.386666  22.766161  0.859579
  6816.803  6816.800  0.500  1.899640  152.517245  22.820008  0.863268
  6818.798  6818.800  0.500  1.897694  152.533372  22.866884  0.866572
  6820.797  6820.800  0.500  1.895954  152.447585  22.893814  0.868715
  6822.795  6822.800  0.500  1.894219  146.042387  21.969998  0.835070
  6824.799  6824.800  0.500  1.892811  151.444643  22.814787  0.867947
  6825.289  6825.300  0.500  1.892461  151.942097  22.897742  0.871417
  6825.787  6825.800  0.500  1.891988  152.150400  22.939990  0.872957
  6826.285  6826.300  0.500  1.891599  152.264637  22.966137  0.874033
  6826.785  6826.800  0.500  1.891335  152.329388  22.981983  0.874662
  6827.289  6827.300  0.500  1.891111  152.372984  22.993710  0.874829
  6827.787  6827.800  0.500  1.890686  152.399314  23.007456  0.875217
  6828.287  6828.300  0.500  1.890582  152.428235  23.014202  0.875656
  6828.786  6828.800  0.500  1.890135  152.445624  23.027139  0.875431
  6829.286  6829.300  0.500  1.889884  152.466482  23.036054  0.874982
  6829.786  6829.800  0.500  1.889184  152.476593  23.053726  0.874514
  6830.287  6830.300  0.500  1.889128  152.485227  23.056306  0.873752
  6830.791  6830.800  0.500  1.888843  152.487508  23.063224  0.873117
  6831.290  6831.300  0.500  1.888472  152.498352  23.073426  0.872273
  6831.793  6831.800  0.500  1.888250  152.507321  23.079910  0.872030
  6832.292  6832.300  0.500  1.888073  152.514330  23.085063  0.872192
  6832.795  6832.800  0.500  1.887874  152.518416  23.090266  0.871849
  6833.294  6833.300  0.500  1.887881  152.519840  23.090329  0.871679
  6833.789  6833.800  0.500  1.887810  152.526466  23.092963  0.871336
  6834.294  6834.300  0.500  1.887461  152.537100  23.102633  0.870641
  6834.791  6834.800  0.500  1.887698  152.545750  23.098475  0.869661
  6835.299  6835.300  0.500  1.887906  152.539576  23.092732  0.868128
  6835.798  6835.800  0.500  1.888109  152.536701  23.087603  0.865872
  6836.296  6836.300  0.500  1.888179  152.544952  23.087241  0.863352
  6836.795  6836.800  0.500  1.888684  152.540795  23.074965  0.859995
  6837.291  6837.300  0.500  1.888827  153.162742  23.165719  0.860386
  6837.794  6837.800  0.500  1.889150  153.090234  23.147296  0.856846
  6838.294  6838.300  0.500  1.889587  152.941487  23.114691  0.852339
  6838.800  6838.800  0.500  1.890036  152.686683  23.065827  0.847520
  6839.304  6839.300  0.500  1.890399  152.380794  23.011270  0.842363
  6839.794  6839.800  0.500  1.890422  150.122548  22.669727  0.827141
  6840.298  6840.300  0.500  1.890318  143.869772  21.727751  0.789580
  6840.794  6840.800  0.500  1.890765  141.581594  21.372631  0.774145
  6841.295  6841.300  0.500  1.890975  145.811987  22.006611  0.794901
  6841.795  6841.800  0.500  1.891158  150.397412  22.694514  0.816817
  6842.301  6842.300  0.500  1.891673  151.538270  22.854886  0.819162
  6842.804  6842.800  0.500  1.892162  151.978479  22.910086  0.817483
  6843.300  6843.300  0.500  1.892540  152.191146  22.933465  0.814389
  6843.803  6843.800  0.500  1.893358  152.335444  22.936432  0.810509
  6844.300  6844.300  0.500  1.893867  152.429072  22.938859  0.805153
  6844.799  6844.800  0.500  1.894516  152.498711  22.934445  0.800131
  6845.298  6845.300  0.500  1.895315  152.541297  22.922526  0.793495
  6845.795  6845.800  0.500  1.896527  152.588475  22.901840  0.786432
  6846.300  6846.300  0.500  1.897257  152.614737  22.889070  0.778721
  6846.801  6846.800  0.500  1.897814  152.641908  22.880403  0.771698
  6847.300  6847.300  0.500  1.898118  152.651848  22.874937  0.764724
  6847.803  6847.800  0.500  1.898723  152.665098  22.863096  0.757439
  6848.296  6848.300  0.500  1.898972  152.673384  22.858627  0.750761
  6848.798  6848.800  0.500  1.899256  152.680663  22.853238  0.744981
  6849.295  6849.300  0.500  1.899743  152.686649  22.842997  0.739468
  6849.795  6849.800  0.500  1.900137  152.695317  22.835304  0.734912
  6850.299  6850.300  0.500  1.900261  152.701087  22.833330  0.731186
  6850.798  6850.800  0.500  1.900274  152.715979  22.835254  0.728217
  6851.306  6851.300  0.500  1.899928  152.718328  22.843515  0.726419
  6851.798  6851.800  0.500  1.899484  152.720144  22.853920  0.724394
  6852.298  6852.300  0.500  1.899064  152.729786  22.864985  0.722888
  6852.796  6852.800  0.500  1.898482  152.728710  22.878132  0.721807
  6853.294  6853.300  0.500  1.898308  152.731574  22.882544  0.720357
  6853.796  6853.800  0.500  1.897906  152.736564  22.892489  0.718956
  6854.301  6854.300  0.500  1.897572  152.728861  22.898972  0.717470
  6854.801  6854.800  0.500  1.897331  152.740311  22.906213  0.716594
  6855.295  6855.300  0.500  1.896842  152.750438  22.918943  0.715504
  6855.800  6855.800  0.500  1.896573  152.763755  22.927093  0.715015
  6856.300  6856.300  0.500  1.896229  152.754613  22.933613  0.714588
  6856.801  6856.800  0.500  1.895853  152.749258  22.941444  0.714339
  6857.304  6857.300  0.500  1.895766  152.754143  22.944162  0.713849
  6857.801  6857.800  0.500  1.895841  152.762538  22.943699  0.713146
  6858.301  6858.300  0.500  1.895452  152.762472  22.952622  0.712832
  6858.798  6858.800  0.500  1.894966  152.751866  22.962185  0.712040
  6859.299  6859.300  0.500  1.894111  152.736972  22.979598  0.711656
  6859.799  6859.800  0.500  1.893813  152.726194  22.984820  0.710413
  6860.801  6860.790  0.500  1.892478  152.554068  22.989572  0.707358
  6861.798  6861.790  0.500  1.891052  152.384590  22.996821  0.704714
  6862.819  6862.810  0.500  1.889755  152.714517  23.076518  0.705809
  6863.872  6863.860  0.500  1.888285  152.799901  23.123388  0.708208
  6864.939  6864.920  0.500  1.886346  152.826402  23.172276  0.712774
  6866.005  6866.000  0.500  1.884088  152.845691  23.227586  0.718349
  6867.117  6867.100  0.500  1.882099  152.855630  23.275343  0.725070
  6868.235  6868.220  0.500  1.879919  152.861707  23.327069  0.731945
  6869.368  6869.360  0.500  1.878027  152.872400  23.372888  0.738042
  6870.519  6870.510  0.500  1.876544  152.880417  23.408809  0.744569
  6871.704  6871.690  0.500  1.874838  152.887859  23.449916  0.751184
  6872.892  6872.880  0.500  1.873811  152.901178  23.476060  0.756998
  6874.104  6874.100  0.500  1.872610  152.905006  23.504841  0.762226
  6875.345  6875.330  0.500  1.871426  152.915171  23.534260  0.767235
  6876.590  6876.580  0.500  1.870475  152.927644  23.558578  0.770836
  6877.862  6877.850  0.500  1.869539  152.925515  23.580300  0.775027
  6879.152  6879.140  0.500  1.868755  152.926197  23.598910  0.777757
  6880.460  6880.450  0.500  1.867952  152.936831  23.619505  0.780530
  6881.793  6881.780  0.500  1.867085  152.933095  23.639418  0.782845
  6883.147  6883.130  0.500  1.866172  152.923071  23.659450  0.784873
  6884.503  6884.500  0.500  1.864957  152.921259  23.687941  0.786555
  6885.888  6885.880  0.500  1.864060  152.928465  23.710325  0.788500
  6887.301  6887.290  0.500  1.863219  152.934213  23.731160  0.789630
  6888.719  6888.710  0.500  1.862086  152.934454  23.758099  0.791543
  6890.160  6890.150  0.500  1.861247  152.938931  23.778727  0.792206
  6891.618  6891.610  0.500  1.860496  152.936560  23.796229  0.793413
  6893.100  6893.090  0.500  1.859487  152.935911  23.820163  0.793979
  6894.593  6894.590  0.500  1.858560  152.944217  23.843533  0.795396
  6896.115  6896.110  0.500  1.857907  152.947697  23.859659  0.795478
  6897.659  6897.650  0.500  1.857012  152.944392  23.880492  0.796755
  6899.211  6899.210  0.500  1.855727  152.939203  23.910403  0.798934
  6900.793  6900.780  0.500  1.854560  152.926741  23.936369  0.800797
  6902.380  6902.380  0.500  1.853006  152.926867  23.973603  0.803006
  6904.002  6903.990  0.500  1.851451  152.919430  24.009746  0.805398
  6905.631  6905.630  0.500  1.849645  152.904077  24.050747  0.807587
  6907.291  6907.280  0.500  1.848476  152.893525  24.077211  0.809308
  6908.954  6908.950  0.500  1.847119  152.871764  24.106463  0.811437
  6910.650  6910.640  0.500  1.845541  152.845265  24.140353  0.813473
  6912.357  6912.350  0.500  1.843781  152.784280  24.173229  0.815843
  6914.087  6914.080  0.500  1.842154  152.751786  24.207447  0.818109
  6915.836  6915.830  0.500  1.840436  152.740674  24.247312  0.820596
  6917.595  6917.590  0.500  1.838679  152.693787  24.282493  0.823464
  6919.390  6919.380  0.500  1.837169  152.653398  24.312744  0.826385
  6921.189  6921.180  0.500  1.835346  152.628640  24.353153  0.829789
  6923.019  6923.010  0.500  1.833299  152.623982  24.402323  0.834244
  6924.860  6924.850  0.500  1.831599  152.599895  24.439991  0.838343
  6926.720  6926.710  0.500  1.829859  152.585791  24.480280  0.842156
  6928.596  6928.590  0.500  1.828056  152.577032  24.523057  0.846696
  6930.495  6930.490  0.500  1.826669  152.563066  24.554842  0.850444
  6932.418  6932.410  0.500  1.824785  152.550974  24.599209  0.854615
  6934.360  6934.350  0.500  1.823005  152.541778  24.641544  0.858981
  6936.319  6936.310  0.500  1.821127  152.538617  24.687353  0.863643
  6938.290  6938.280  0.500  1.819452  152.545117  24.729783  0.869140
  6940.293  6940.280  0.500  1.818145  152.531437  24.759919  0.874231
  6942.294  6942.290  0.500  1.816435  152.532330  24.802419  0.879161
  6944.334  6944.320  0.500  1.814817  152.524867  24.841375  0.883440
  6946.385  6946.380  0.500  1.813108  152.505143  24.880637  0.887641
  6948.462  6948.450  0.500  1.811251  152.489073  24.924273  0.891703
  6950.546  6950.540  0.500  1.809605  152.477525  24.963431  0.895091
  6952.662  6952.650  0.500  1.807940  152.470121  25.003830  0.898419
  6954.792  6954.780  0.500  1.806468  152.462922  25.039482  0.901707
  6956.925  6956.920  0.500  1.805008  152.441655  25.072567  0.904477
  6959.101  6959.090  0.500  1.803038  152.435737  25.121033  0.907694
  6961.292  6961.280  0.500  1.801522  152.443921  25.160484  0.910747
  6963.493  6963.480  0.500  1.799953  152.427053  25.197204  0.913434
  6965.708  6965.700  0.500  1.798172  152.430520  25.242704  0.916250
  6967.955  6967.950  0.500  1.796487  152.429857  25.285153  0.919260
  6970.224  6970.210  0.500  1.794280  152.419541  25.339301  0.923465
  6972.503  6972.490  0.500  1.792350  152.407746  25.386301  0.927366
  6974.794  6974.790  0.500  1.790277  152.384586  25.435104  0.931768
  6977.126  6977.110  0.500  1.788107  152.363231  25.486800  0.936706
  6979.463  6979.450  0.500  1.786250  152.339688  25.530225  0.941203
  6981.812  6981.800  0.500  1.784480  152.314595  25.571241  0.945222
  6984.198  6984.180  0.500  1.782386  152.293486  25.621274  0.950107
  6986.584  6986.570  0.500  1.780476  152.277711  25.667603  0.954741
  6989.008  6988.990  0.500  1.778558  152.260378  25.713967  0.959214
  6991.435  6991.420  0.500  1.776865  152.248775  25.755564  0.962836
  6993.884  6993.870  0.500  1.774835  152.228047  25.804401  0.967175
  6996.363  6996.350  0.500  1.772436  152.213119  25.863830  0.971790
  6998.855  6998.840  0.500  1.770306  152.186850  25.914499  0.975123
  7001.365  7001.350  0.500  1.767902  152.168672  25.973781  0.979695
  7003.883  7003.870  0.500  1.765903  152.151890  26.022889  0.983753
  7006.429  7006.420  0.500  1.763799  152.130059  26.073948  0.988496
  7009.011  7008.990  0.500  1.761707  152.104623  26.124190  0.992754
  7011.587  7011.570  0.500  1.759839  152.078226  26.168479  0.997590
  7014.194  7014.180  0.500  1.757300  152.066184  26.232949  1.003390
  7016.814  7016.800  0.500  1.755113  152.045281  26.286749  1.009050
  7019.461  7019.450  0.500  1.753290  152.027808  26.331699  1.014669
  7022.131  7022.110  0.500  1.750785  152.012611  26.395097  1.021799
  7024.801  7024.790  0.500  1.749048  151.998487  26.438540  1.027024
  7027.493  7027.490  0.500  1.747113  151.975237  26.485689  1.033026
  7030.228  7030.210  0.500  1.744630  151.958994  26.548706  1.039043
  7032.965  7032.950  0.500  1.742471  151.900287  26.595812  1.044521
  7035.717  7035.700  0.500  1.740208  151.871355  26.650972  1.049474
  7038.494  7038.480  0.500  1.738255  151.861404  26.701316  1.054131
  7041.286  7041.270  0.500  1.735733  151.836243  26.764321  1.060053
  7044.103  7044.090  0.500  1.733676  151.813717  26.815455  1.064826
  7046.934  7046.920  0.500  1.731633  151.776487  26.863699  1.069644
  7049.781  7049.770  0.500  1.729193  151.735895  26.922119  1.074778
  7052.662  7052.650  0.500  1.726817  151.723674  26.984004  1.079890
  7055.551  7055.540  0.500  1.724517  151.698491  27.041629  1.085588
  7058.464  7058.450  0.500  1.722292  151.671065  27.096980  1.090919
  7061.389  7061.370  0.500  1.719946  151.686688  27.163417  1.097810
  7064.337  7064.320  0.500  1.717309  151.496992  27.201076  1.103201
  7067.301  7067.290  0.500  1.715070  151.541600  27.270068  1.110083
  7070.280  7070.270  0.500  1.712903  150.191770  27.085806  1.106912
  7073.296  7073.280  0.500  1.710540  151.457392  27.378664  1.122992
  7076.316  7076.300  0.500  1.707747  151.191639  27.407068  1.128833
  7079.362  7079.350  0.500  1.705122  151.383051  27.513908  1.137203
  7082.424  7082.410  0.500  1.702708  151.151000  27.538124  1.141865
  7085.504  7085.490  0.500  1.700494  151.223329  27.612359  1.148873
  7088.601  7088.590  0.500  1.697934  151.227528  27.683922  1.155406
  7091.718  7091.710  0.500  1.695568  151.187432  27.742129  1.161090
  7094.859  7094.850  0.500  1.692973  151.151919  27.807681  1.167701
  7098.012  7098.000  0.500  1.690462  151.127191  27.873049  1.174239
  7101.193  7101.180  0.500  1.687933  151.095551  27.937767  1.180120
  7104.384  7104.370  0.500  1.685569  151.046517  27.994797  1.186590
  7107.601  7107.590  0.500  1.682966  150.985629  28.056460  1.192993
  7110.832  7110.820  0.500  1.680381  150.862068  28.106063  1.199522
  7114.079  7114.070  0.500  1.677851  150.622685  28.132546  1.204868
  7117.357  7117.350  0.500  1.675109  150.530881  28.192578  1.212349
  7120.645  7120.640  0.500  1.672713  150.373782  28.230740  1.219089
  7123.961  7123.950  0.500  1.670381  150.209909  28.265814  1.225712
  7127.281  7127.270  0.500  1.668161  150.019585  28.292728  1.231410
  7130.632  7130.620  0.500  1.665551  149.757647  28.317150  1.237382
  7134.003  7133.990  0.500  1.662801  149.617721  28.368587  1.245404
  7137.383  7137.370  0.500  1.660213  149.593076  28.437420  1.252768
  7140.789  7140.780  0.500  1.657828  149.579044  28.502646  1.260209
  7144.212  7144.200  0.500  1.655192  149.561152  28.574455  1.267564
  7147.659  7147.650  0.500  1.652517  149.553615  28.649558  1.275300
  7151.121  7151.110  0.500  1.650098  149.514256  28.711379  1.282141
  7154.600  7154.590  0.500  1.647448  149.456566  28.776466  1.288549
  7158.100  7158.090  0.500  1.644914  149.427919  28.843942  1.296405
  7161.618  7161.610  0.500  1.642125  149.875607  29.011165  1.308165
  7165.159  7165.150  0.500  1.639542  149.759014  29.063569  1.315285
  7168.711  7168.700  0.500  1.636627  149.643884  29.126000  1.322782
  7172.288  7172.280  0.500  1.633902  149.555259  29.188187  1.331363
  7175.887  7175.880  0.500  1.631102  149.461554  29.251689  1.339516
  7179.500  7179.490  0.500  1.628356  149.396236  29.319302  1.348926
  7183.130  7183.120  0.500  1.625809  149.311425  29.377396  1.357017
  7186.790  7186.780  0.500  1.623258  149.237102  29.437749  1.365093
  7190.454  7190.450  0.500  1.620075  149.164718  29.517286  1.374748
  7194.144  7194.140  0.500  1.617401  148.871875  29.538227  1.381409
  7197.853  7197.850  0.500  1.614997  148.873873  29.609705  1.389926
  7201.584  7201.580  0.500  1.612292  148.776990  29.670582  1.398025
  7205.325  7205.320  0.500  1.609085  148.665548  29.743609  1.407845
  7209.095  7209.090  0.500  1.606390  148.528648  29.796400  1.415578
  7212.887  7212.880  0.500  1.603925  148.411399  29.846363  1.423329
  7216.687  7216.680  0.500  1.601140  148.282692  29.903638  1.431639
  7220.517  7220.510  0.500  1.598212  148.162473  29.967031  1.439516
  7224.359  7224.350  0.500  1.595363  148.041432  30.027959  1.448210
  7228.218  7228.210  0.500  1.592556  145.645536  29.625050  1.433917
  7232.095  7232.090  0.500  1.589636  147.959922  30.183815  1.467013
  7235.997  7235.990  0.500  1.586748  147.850965  30.248800  1.475783
  7239.915  7239.910  0.500  1.583871  147.742971  30.313787  1.485054
  7243.859  7243.850  0.500  1.581150  147.501921  30.346790  1.493469
  7247.813  7247.810  0.500  1.579158  147.439014  30.394358  1.501709
  7251.788  7251.780  0.500  1.575897  147.309453  30.466841  1.512237
  7255.790  7255.780  0.500  1.572935  147.423274  30.580823  1.524799
  7259.798  7259.790  0.500  1.569772  147.108177  30.612142  1.532912
  7263.838  7263.830  0.500  1.566536  137.056019  28.612793  1.438342
  7267.889  7267.880  0.500  1.564307  147.415596  30.844217  1.557901
  7271.963  7271.950  0.500  1.561083  147.310355  30.921725  1.568063
  7276.047  7276.040  0.500  1.558394  147.408659  31.025657  1.580000
  7280.162  7280.150  0.500  1.555233  147.257997  31.092067  1.588869
  7284.295  7284.280  0.500  1.552316  144.798846  30.662164  1.573605
  7288.438  7288.430  0.500  1.549469  146.923211  31.200725  1.607849
  7292.599  7292.590  0.500  1.546528  146.853366  31.277743  1.618449
  7296.811  7296.780  0.500  1.543625  146.707870  31.337601  1.627933
  7300.996  7300.980  0.500  1.540737  145.621465  31.195497  1.626734
  7305.222  7305.210  0.500  1.537625  146.588502  31.500529  1.649479
  7309.469  7309.450  0.500  1.534481  146.450026  31.569883  1.660328
  7313.725  7313.710  0.500  1.531305  146.312042  31.640468  1.672351
  7318.008  7317.990  0.500  1.528372  146.191375  31.707216  1.683273
  7322.311  7322.290  0.500  1.525326  146.055703  31.774438  1.694320
  7326.631  7326.610  0.500  1.522240  145.922030  31.843479  1.705862
  7330.973  7330.950  0.500  1.519118  145.789202  31.913967  1.717140
  7335.304  7335.310  0.500  1.516103  145.676815  31.985654  1.729100
  7339.683  7339.690  0.500  1.513373  143.189904  31.525548  1.711319
  7344.069  7344.080  0.500  1.510095  145.310302  32.097444  1.750069
  7348.484  7348.500  0.500  1.506896  145.212672  32.178666  1.762094
  7352.919  7352.930  0.500  1.503915  145.088155  32.247042  1.773377
  7357.379  7357.380  0.500  1.500932  144.955354  32.313796  1.784504
  7361.836  7361.850  0.500  1.497998  144.816674  32.377722  1.795396
  7366.327  7366.340  0.500  1.494689  144.671673  32.452503  1.806636
  7370.836  7370.850  0.500  1.491625  144.545284  32.523666  1.818427
  7375.366  7375.380  0.500  1.488688  144.412365  32.589323  1.829886
  7379.921  7379.930  0.500  1.485611  144.255221  32.654175  1.842070
