# XDI/1.0 BlueSky/1.10.0 BMM/2023-1.0-py310-tiled
# Beamline.name: BMM (06BM) -- Beamline for Materials Measurement (NIST)
# Beamline.xray_source: NSLS-II three-pole wiggler
# Beamline.collimation: paraboloid mirror, 5 nm Rh on 30 nm Pt
# Beamline.focusing: not in use
# Beamline.harmonic_rejection: flat mirror, Pt stripe, pitch = 7.0 mrad relative to beam
# Beamline.software: Bluesky 1.10.0, Ophyd 1.7.0, DataBroker 2.0.0b13, Python 3.10.8, 2023-1.0-py310-tiled
# Detector.I0: 10 cm N2
# Detector.I1: 25 cm N2
# Detector.I2: 25 cm N2
# Element.symbol: Hf
# Element.edge: L1
# Element.reference: Hf
# Element.reference_material: HfO2
# Facility.name: NSLS-II
# Facility.energy: 3.0
# Facility.current: 400.2
# Facility.mode: top-off
# Facility.GUP: 301027
# Facility.SAF: 310583
# Facility.cycle: 2023-2
# Mono.name: Si(111)
# Mono.d_spacing: 3.1351860
# Mono.encoder_resolution: 0.0000050 deg/ct
# Mono.angle_offset: 16.0754326 deg
# Mono.scan_mode: pseudo channel cut
# Mono.scan_type: step
# Mono.direction: forward in energy
# Sample.name: HfO2
# Sample.prep: PEG pellet
# Sample.x: 109.138 mm
# Sample.y: 153.150 mm
# Sample.SDD_position: 205.000 mm
# Scan.experimenters: Bruce Ravel
# Scan.edge_energy: 11270.7
# Scan.start_time: 2023-05-28T18:46:13
# Scan.end_time: 2023-05-28T18:54:35
# Scan.transient_id: 78924
# Scan.uid: 71f64184-40ab-423c-a042-6f1c878ffd89
# Scan.plot_hint: ln(It/Ir)  --  ln($6/$7)
# Column.1: energy eV
# Column.2: requested_energy eV
# Column.3: measurement_time seconds
# Column.4: xmu 
# Column.5: I0 nA
# Column.6: It nA
# Column.7: Ir nA
# ///////////
# sample courtesy Martin Stennett, University of Sheffield
# -----------
# energy  requested_energy  measurement_time  xmu  I0  It  Ir
  11070.695  11070.700  0.500  2.290282  77.650750  126.899585  12.847055
  11080.742  11080.700  0.500  2.286163  77.494880  126.699810  12.879769
  11090.775  11090.700  0.500  2.281328  77.257079  126.372604  12.908773
  11100.752  11100.700  0.500  2.276973  77.124809  126.204060  12.947822
  11110.704  11110.700  0.500  2.272011  76.896439  125.909072  12.981806
  11120.712  11120.700  0.500  2.266825  76.747307  125.719886  13.029697
  11130.706  11130.700  0.500  2.262399  76.595210  125.531770  13.067918
  11140.724  11140.700  0.500  2.259411  76.430431  125.328570  13.085803
  11150.728  11150.700  0.500  2.256185  76.250301  125.091691  13.103266
  11160.777  11160.700  0.500  2.252568  76.085920  124.873942  13.127867
  11170.692  11170.700  0.500  2.248174  75.874448  124.574743  13.154073
  11180.713  11180.700  0.500  2.243216  75.688352  124.342298  13.194790
  11190.729  11190.700  0.500  2.238640  75.511868  124.103849  13.229886
  11200.721  11200.700  0.500  2.234933  75.351790  123.893522  13.256524
  11210.725  11210.700  0.500  2.231803  75.163175  123.646079  13.271525
  11220.764  11220.700  0.500  2.229237  74.966428  123.365658  13.275446
  11230.734  11230.700  0.500  2.226608  74.774412  123.110139  13.282820
  11240.743  11240.700  0.500  2.223518  72.784131  119.883469  12.974709
  11242.681  11242.700  0.500  2.222601  74.002010  121.897233  13.204757
  11244.669  11244.700  0.500  2.222210  74.622879  122.948799  13.323879
  11246.686  11246.700  0.500  2.221604  74.558212  122.849325  13.321171
  11248.670  11248.700  0.500  2.220965  74.504232  122.778316  13.321980
  11250.666  11250.700  0.500  2.220386  74.459235  122.715006  13.322828
  11252.674  11252.700  0.500  2.219899  74.426268  122.666305  13.324027
  11254.682  11254.700  0.500  2.219572  74.382774  122.606414  13.321873
  11256.675  11256.700  0.500  2.219291  74.330974  122.530979  13.317417
  11258.668  11258.700  0.500  2.219391  74.288212  122.475837  13.310101
  11260.668  11260.700  0.500  2.219492  74.246080  122.419614  13.302646
  11260.948  11261.000  0.500  2.219571  74.246284  122.410101  13.300554
  11261.246  11261.300  0.500  2.219416  74.230787  122.390954  13.300532
  11261.555  11261.600  0.500  2.219554  74.213937  122.357890  13.295115
  11261.847  11261.900  0.500  2.219678  74.202529  122.348639  13.292463
  11262.161  11262.200  0.500  2.219893  74.199917  122.345509  13.289264
  11262.458  11262.500  0.500  2.220036  74.190236  122.334129  13.286125
  11262.756  11262.800  0.500  2.220092  74.180986  122.321535  13.284016
  11263.065  11263.100  0.500  2.220155  74.167059  122.297146  13.280523
  11263.379  11263.400  0.500  2.220375  74.159480  122.287224  13.276526
  11263.671  11263.700  0.500  2.220394  74.159563  122.285040  13.276041
  11263.969  11264.000  0.500  2.220816  74.147553  122.265921  13.268368
  11264.272  11264.300  0.500  2.220907  74.142790  122.264437  13.266989
  11264.570  11264.600  0.500  2.220990  74.134852  122.244586  13.263741
  11264.862  11264.900  0.500  2.221274  74.124186  122.229010  13.258278
  11265.193  11265.200  0.500  2.221632  74.114354  122.206023  13.251046
  11265.474  11265.500  0.500  2.221876  74.104069  122.207486  13.247968
  11265.783  11265.800  0.500  2.222033  74.097353  122.192961  13.244317
  11266.080  11266.100  0.500  2.222346  74.090762  122.177591  13.238505
  11266.373  11266.400  0.500  2.222689  74.083134  122.163836  13.232478
  11266.681  11266.700  0.500  2.222891  74.075223  122.154539  13.228802
  11266.979  11267.000  0.500  2.223575  74.066423  122.157783  13.220104
  11267.272  11267.300  0.500  2.223942  74.056883  122.147814  13.214167
  11267.575  11267.600  0.500  2.224198  74.051065  122.128170  13.208665
  11267.878  11267.900  0.500  2.224759  74.049657  122.114656  13.199790
  11268.171  11268.200  0.500  2.225448  74.037417  122.100788  13.189205
  11268.485  11268.500  0.500  2.226080  74.020279  122.087262  13.179419
  11268.778  11268.800  0.500  2.226717  74.018609  122.079588  13.170192
  11269.070  11269.100  0.500  2.227347  74.018700  122.078947  13.161836
  11269.374  11269.400  0.500  2.228264  74.015086  122.079593  13.149838
  11269.661  11269.700  0.500  2.229085  74.003508  122.054759  13.136372
  11269.992  11270.000  0.500  2.230162  73.993911  122.043237  13.120994
  11270.273  11270.300  0.500  2.231148  73.991690  122.034273  13.107096
  11270.588  11270.600  0.500  2.232527  73.979747  122.012888  13.086736
  11270.880  11270.900  0.500  2.233746  73.977469  122.012386  13.070741
  11271.184  11271.200  0.500  2.235434  73.962284  121.990198  13.046332
  11271.487  11271.500  0.500  2.237329  73.955343  121.981316  13.020681
  11271.797  11271.800  0.500  2.239267  73.946025  121.966234  12.993870
  11272.084  11272.100  0.500  2.241455  73.949963  121.986836  12.967653
  11272.398  11272.400  0.500  2.243982  73.933086  121.959118  12.931983
  11272.691  11272.700  0.500  2.246551  73.928784  121.943584  12.897163
  11272.989  11273.000  0.500  2.249385  73.915190  121.926798  12.858891
  11273.293  11273.300  0.500  2.252163  73.912876  121.918278  12.822331
  11273.597  11273.600  0.500  2.255335  73.916506  121.934139  12.783379
  11273.889  11273.900  0.500  2.258021  73.900649  121.912955  12.746877
  11274.193  11274.200  0.500  2.260934  73.894005  121.902957  12.708757
  11274.486  11274.500  0.500  2.263373  74.113034  122.267277  12.715686
  11274.795  11274.800  0.500  2.265945  74.118488  122.278939  12.684237
  11275.082  11275.100  0.500  2.268423  74.118891  122.282546  12.653210
  11275.386  11275.400  0.500  2.270631  74.117439  122.276552  12.624684
  11275.673  11275.700  0.500  2.272990  74.106438  122.262200  12.593466
  11275.983  11276.000  0.500  2.275349  74.106804  122.261184  12.563686
  11276.275  11276.300  0.500  2.277602  74.099199  122.241693  12.533408
  11276.574  11276.600  0.500  2.279923  74.099416  122.253684  12.505580
  11276.878  11276.900  0.500  2.282309  74.084638  122.237488  12.474133
  11277.193  11277.200  0.500  2.284691  74.076079  122.226721  12.443354
  11277.474  11277.500  0.500  2.286864  74.078326  122.228001  12.416472
  11277.801  11277.800  0.500  2.289118  74.066474  122.212010  12.386895
  11278.088  11278.100  0.500  2.291264  74.052562  122.199178  12.359052
  11278.408  11278.400  0.500  2.293469  74.050700  122.186704  12.330571
  11278.685  11278.700  0.500  2.295375  74.047472  122.175746  12.305985
  11279.005  11279.000  0.500  2.297857  74.044327  122.170374  12.274937
  11279.293  11279.300  0.500  2.300082  74.030150  122.146701  12.245277
  11279.608  11279.600  0.500  2.302468  74.030438  122.150538  12.216480
  11279.890  11279.900  0.500  2.304808  74.015093  122.126024  12.185488
  11280.188  11280.200  0.500  2.307646  74.011922  122.125593  12.150907
  11280.493  11280.500  0.500  2.310355  74.004604  122.108527  12.116340
  11280.802  11280.800  0.500  2.313578  73.997360  122.100283  12.076542
  11281.095  11281.100  0.500  2.316841  73.994120  122.108134  12.037968
  11281.410  11281.400  0.500  2.320485  73.980250  122.089669  11.992369
  11281.687  11281.700  0.500  2.324015  73.973131  122.079687  11.949133
  11281.975  11282.000  0.500  2.328053  73.963951  122.052216  11.898300
  11282.400  11282.300  0.500  2.334401  73.964770  122.070723  11.824810
  11282.544  11282.600  0.500  2.336827  73.927751  122.017937  11.791059
  11282.942  11282.900  0.500  2.343588  73.906902  121.982542  11.708210
  11283.241  11283.200  0.500  2.349043  73.905363  121.970035  11.643319
  11283.551  11283.500  0.500  2.355078  73.898152  121.966298  11.572910
  11283.839  11283.800  0.500  2.360802  73.891550  121.944611  11.504809
  11284.132  11284.100  0.500  2.366880  73.880454  121.940673  11.434728
  11284.436  11284.400  0.500  2.373314  73.874475  121.936267  11.360983
  11284.735  11284.700  0.500  2.379504  73.871009  121.927713  11.290083
  11285.039  11285.000  0.500  2.385976  73.862772  121.916285  11.216191
  11285.338  11285.300  0.500  2.392442  73.853308  121.900278  11.142442
  11285.626  11285.600  0.500  2.398703  73.853665  121.896167  11.072528
  11285.925  11285.900  0.500  2.405041  73.843567  121.879092  11.001025
  11286.240  11286.200  0.500  2.411418  73.839004  121.876594  10.930869
  11286.528  11286.500  0.500  2.417261  73.825107  121.864222  10.866080
  11286.821  11286.800  0.500  2.422820  73.820832  121.864238  10.805852
  11287.131  11287.100  0.500  2.428487  73.808681  121.848189  10.743369
  11287.441  11287.400  0.500  2.433833  73.803674  121.833151  10.684775
  11287.724  11287.700  0.500  2.438798  73.790896  121.810354  10.629866
  11288.028  11288.000  0.500  2.443516  73.793080  121.812011  10.579969
  11288.344  11288.300  0.500  2.448142  73.781347  121.800360  10.530136
  11288.632  11288.600  0.500  2.451966  73.771840  121.779198  10.488120
  11288.920  11288.900  0.500  2.455890  73.761447  121.776980  10.446859
  11289.224  11289.200  0.500  2.459494  73.749908  121.750462  10.407007
  11289.512  11289.500  0.500  2.462693  73.749785  121.764438  10.374965
  11289.806  11289.800  0.500  2.465480  73.718507  121.698638  10.340494
  11290.127  11290.100  0.500  2.468155  73.696812  121.661451  10.309723
  11290.421  11290.400  0.500  2.470474  73.674653  121.627343  10.282956
  11290.714  11290.700  0.500  2.472164  73.663668  121.607136  10.263888
  11291.019  11291.000  0.500  2.473611  73.644514  121.592561  10.247823
  11291.324  11291.300  0.500  2.474636  73.625698  121.564587  10.234960
  11291.606  11291.600  0.500  2.475324  73.614559  121.541699  10.225997
  11291.922  11291.900  0.500  2.475568  73.613564  121.536674  10.223083
  11292.221  11292.200  0.500  2.475811  73.605613  121.519605  10.219165
  11292.509  11292.500  0.500  2.475456  73.595035  121.508886  10.221884
  11292.808  11292.800  0.500  2.475113  73.589396  121.504976  10.225065
  11293.108  11293.100  0.500  2.474382  73.582877  121.495906  10.231776
  11293.401  11293.400  0.500  2.473577  73.575692  121.487341  10.239300
  11293.695  11293.700  0.500  2.472640  73.562192  121.466936  10.247177
  11294.005  11294.000  0.500  2.471425  73.555274  121.455204  10.258647
  11294.305  11294.300  0.500  2.470130  73.545864  121.447143  10.271250
  11294.593  11294.600  0.500  2.468725  73.542578  121.434978  10.284668
  11294.892  11294.900  0.500  2.467102  73.527271  121.414397  10.299621
  11295.203  11295.200  0.500  2.465585  73.507282  121.400533  10.314079
  11295.497  11295.500  0.500  2.463864  73.508044  121.376688  10.329818
  11295.696  11295.700  0.500  2.462747  73.484768  121.337019  10.337985
  11296.705  11296.690  0.500  2.456480  73.433219  121.266652  10.396941
  11297.709  11297.690  0.500  2.450422  73.298566  121.046316  10.441113
  11298.741  11298.710  0.500  2.444809  72.470739  119.697567  10.382891
  11299.795  11299.760  0.500  2.439655  71.702441  118.431012  10.326110
  11300.855  11300.820  0.500  2.435266  72.988845  120.547372  10.556864
  11301.926  11301.900  0.500  2.431834  73.485834  121.383050  10.666603
  11303.019  11303.000  0.500  2.428637  73.481361  121.380189  10.700504
  11304.141  11304.120  0.500  2.425970  73.450161  121.334079  10.725004
  11305.268  11305.260  0.500  2.422345  73.423218  121.286246  10.759712
  11306.407  11306.410  0.500  2.417743  73.397372  121.260489  10.807045
  11307.618  11307.590  0.500  2.411775  73.360933  121.214377  10.867602
  11308.807  11308.780  0.500  2.405571  73.334136  121.164884  10.930768
  11310.030  11310.000  0.500  2.398825  73.303224  121.127028  11.001320
  11311.242  11311.230  0.500  2.392724  73.281015  121.096714  11.065874
  11312.515  11312.480  0.500  2.387029  73.252541  121.049177  11.124702
  11313.772  11313.750  0.500  2.382408  73.218157  120.989536  11.170722
  11315.046  11315.040  0.500  2.378945  73.181813  120.944238  11.205276
  11316.354  11316.350  0.500  2.376129  73.131067  120.880466  11.230943
  11317.700  11317.680  0.500  2.373401  73.061664  120.766746  11.251033
  11319.036  11319.030  0.500  2.370964  72.743903  120.236988  11.229009
  11320.417  11320.400  0.500  2.369125  72.726708  120.221614  11.248243
  11321.799  11321.780  0.500  2.368074  71.314040  117.884935  11.041220
  11323.214  11323.190  0.500  2.367039  71.607779  118.399532  11.100890
  11324.635  11324.610  0.500  2.366818  73.160029  120.967734  11.344191
  11326.050  11326.050  0.500  2.366822  73.113625  120.898686  11.337669
  11327.522  11327.510  0.500  2.367244  73.004942  120.727108  11.316803
  11329.000  11328.990  0.500  2.367855  72.583581  120.033895  11.244947
  11330.512  11330.490  0.500  2.369260  72.936157  120.618961  11.283897
  11332.030  11332.010  0.500  2.371110  72.935831  120.649863  11.265921
  11333.570  11333.550  0.500  2.373240  72.878107  120.557864  11.233383
  11335.144  11335.110  0.500  2.375833  72.810922  120.456933  11.194912
  11336.674  11336.680  0.500  2.378455  72.730134  120.320891  11.152982
  11338.289  11338.280  0.500  2.381239  72.530811  119.990051  11.091400
  11339.898  11339.890  0.500  2.384466  70.982500  117.440621  10.820765
  11341.552  11341.530  0.500  2.387137  72.297623  119.622533  10.992404
  11343.213  11343.180  0.500  2.389660  72.665032  120.236619  11.020985
  11344.874  11344.850  0.500  2.391530  72.555421  120.065265  10.984725
  11346.547  11346.540  0.500  2.392839  72.265013  119.584294  10.926403
  11348.259  11348.250  0.500  2.393568  72.251796  119.582093  10.918242
  11349.977  11349.980  0.500  2.393438  72.081096  119.302786  10.894156
  11351.736  11351.730  0.500  2.393059  72.146170  119.419858  10.908981
  11353.494  11353.490  0.500  2.392313  71.851032  118.956632  10.874781
  11355.299  11355.280  0.500  2.391138  71.085199  117.685871  10.771258
  11357.098  11357.080  0.500  2.389680  66.030503  109.327064  10.020807
  11358.920  11358.910  0.500  2.387181  62.205476  103.001851  9.464675
  11360.743  11360.750  0.500  2.384914  72.588976  120.205458  11.070552
  11362.616  11362.610  0.500  2.382722  72.852988  120.645732  11.135486
  11364.502  11364.490  0.500  2.380835  72.725196  120.449348  11.138354
  11366.394  11366.390  0.500  2.379633  72.392941  119.908037  11.101626
  11368.309  11368.310  0.500  2.378640  72.405234  119.939582  11.115581
  11370.270  11370.250  0.500  2.377953  72.207997  119.618454  11.093440
  11372.231  11372.210  0.500  2.376830  72.378174  119.917888  11.133708
  11374.187  11374.180  0.500  2.375024  72.153588  119.552629  11.119865
  11376.178  11376.180  0.500  2.372854  70.577316  116.949592  10.901376
  11378.187  11378.190  0.500  2.370171  72.489965  120.126979  11.227635
  11380.241  11380.220  0.500  2.367737  72.501774  120.166131  11.258664
  11382.301  11382.280  0.500  2.365481  72.442479  120.087127  11.276676
  11384.363  11384.350  0.500  2.363436  72.378032  119.987449  11.290380
  11386.442  11386.440  0.500  2.361296  72.284044  119.837884  11.300463
  11388.566  11388.550  0.500  2.359082  71.882388  119.184659  11.263780
  11390.698  11390.680  0.500  2.357035  72.159103  119.650608  11.330987
  11392.818  11392.820  0.500  2.355104  71.664934  118.839622  11.275931
  11395.002  11394.990  0.500  2.353484  70.466026  116.863545  11.106421
  11397.209  11397.180  0.500  2.352713  72.158848  119.691137  11.383912
  11399.395  11399.380  0.500  2.352053  72.120642  119.630583  11.385668
  11401.620  11401.600  0.500  2.351928  72.119396  119.640883  11.388068
  11403.847  11403.850  0.500  2.351970  72.059181  119.546809  11.378636
  11406.126  11406.110  0.500  2.352346  72.000694  119.467602  11.366823
  11408.422  11408.390  0.500  2.352962  71.948748  119.384370  11.351918
  11410.697  11410.690  0.500  2.353671  71.884606  119.305669  11.336386
  11413.000  11413.010  0.500  2.354429  71.821840  119.200142  11.317778
  11415.368  11415.350  0.500  2.355050  71.683431  118.996347  11.291413
  11417.724  11417.700  0.500  2.355017  70.018956  116.229686  11.029259
  11420.094  11420.080  0.500  2.354583  71.746255  119.114589  11.307911
  11422.481  11422.470  0.500  2.354034  71.724555  119.097062  11.312460
  11424.914  11424.890  0.500  2.353438  71.664855  119.006212  11.310569
  11427.332  11427.320  0.500  2.352301  71.610920  118.921953  11.315423
  11429.773  11429.770  0.500  2.351093  71.565223  118.848030  11.322059
  11432.261  11432.250  0.500  2.349294  71.508463  118.781822  11.336120
  11434.756  11434.740  0.500  2.347066  71.457624  118.714615  11.354978
  11437.263  11437.250  0.500  2.344896  71.409690  118.642009  11.372693
  11439.771  11439.770  0.500  2.342731  71.358250  118.578319  11.391222
  11442.326  11442.320  0.500  2.340850  71.311318  118.514012  11.406476
  11444.916  11444.890  0.500  2.338956  71.260499  118.440786  11.421044
  11447.490  11447.470  0.500  2.337472  71.214025  118.364057  11.430593
  11450.089  11450.080  0.500  2.336424  71.160079  118.298013  11.436191
  11452.705  11452.700  0.500  2.335791  71.107164  118.222163  11.436091
  11455.368  11455.350  0.500  2.335121  71.054673  118.149244  11.436703
  11458.016  11458.010  0.500  2.334424  71.008768  118.071485  11.437139
  11460.711  11460.690  0.500  2.333452  70.956564  118.004901  11.441812
  11463.406  11463.390  0.500  2.332137  70.897793  117.931275  11.449712
  11466.126  11466.110  0.500  2.330685  70.846306  117.853520  11.458789
  11468.865  11468.850  0.500  2.329100  70.786618  117.762238  11.468079
  11471.616  11471.600  0.500  2.327526  70.714298  117.647831  11.474991
  11474.408  11474.380  0.500  2.326235  70.601725  117.494618  11.474845
  11477.179  11477.170  0.500  2.324811  69.515436  115.694568  11.315154
  11480.020  11479.990  0.500  2.323323  70.613339  117.521691  11.510961
  11482.840  11482.820  0.500  2.322048  70.647141  117.596890  11.533029
  11485.667  11485.670  0.500  2.320396  70.571900  117.497070  11.542285
  11488.570  11488.550  0.500  2.318505  70.500892  117.392736  11.553867
  11491.462  11491.440  0.500  2.316817  70.438839  117.299854  11.564228
  11494.345  11494.350  0.500  2.315076  70.385601  117.219150  11.576413
  11497.304  11497.270  0.500  2.313454  70.322499  117.140469  11.587412
  11500.242  11500.220  0.500  2.312062  70.261891  117.052090  11.594800
  11503.192  11503.190  0.500  2.311228  70.208566  116.967825  11.596120
  11506.179  11506.170  0.500  2.310637  70.150233  116.882470  11.594508
  11509.196  11509.180  0.500  2.309889  70.096314  116.801129  11.595118
  11512.209  11512.200  0.500  2.309144  70.034997  116.722273  11.595917
  11515.275  11515.250  0.500  2.308127  69.982009  116.643161  11.599848
  11518.320  11518.310  0.500  2.307203  69.919219  116.550911  11.601394
  11521.390  11521.390  0.500  2.306217  69.861066  116.476117  11.605390
  11524.519  11524.490  0.500  2.305160  69.802395  116.388781  11.608949
  11527.620  11527.610  0.500  2.304080  69.740737  116.299233  11.612545
  11530.753  11530.750  0.500  2.302804  69.678480  116.216100  11.619069
  11533.933  11533.900  0.500  2.301390  69.616291  116.123371  11.626218
  11537.081  11537.080  0.500  2.299887  69.548202  116.028240  11.634175
  11540.282  11540.270  0.500  2.298432  69.472535  115.914972  11.639736
  11543.503  11543.490  0.500  2.297058  69.401421  115.815677  11.645760
  11546.737  11546.720  0.500  2.295559  69.314988  115.675742  11.649130
  11549.979  11549.970  0.500  2.293906  69.230508  115.546116  11.655336
  11553.263  11553.250  0.500  2.292218  69.119281  115.381189  11.658356
  11556.555  11556.540  0.500  2.290475  68.968705  115.146674  11.654955
  11559.877  11559.850  0.500  2.288766  68.707937  114.727500  11.632393
  11563.173  11563.170  0.500  2.287180  68.032124  113.620083  11.538393
  11566.529  11566.520  0.500  2.285595  67.216657  112.276019  11.419991
  11569.898  11569.890  0.500  2.283913  67.526692  112.821715  11.494814
  11573.293  11573.270  0.500  2.282482  67.654863  113.045866  11.534142
  11576.689  11576.680  0.500  2.280945  67.637428  113.021796  11.549430
  11580.123  11580.100  0.500  2.279896  67.535904  112.873727  11.546398
  11583.576  11583.550  0.500  2.278330  67.521259  112.867613  11.563868
  11587.002  11587.010  0.500  2.277218  67.502470  112.858329  11.575789
  11590.507  11590.490  0.500  2.275994  67.414692  112.727785  11.576557
  11594.007  11593.990  0.500  2.274629  67.292751  112.533174  11.572352
  11597.539  11597.510  0.500  2.273286  67.273568  112.511700  11.585698
  11601.061  11601.050  0.500  2.271799  67.268400  112.520222  11.603812
  11604.615  11604.600  0.500  2.270098  67.227695  112.473856  11.618778
  11608.206  11608.180  0.500  2.268342  67.191646  112.428631  11.634521
  11611.788  11611.780  0.500  2.266465  67.117203  112.302867  11.643335
  11615.419  11615.390  0.500  2.264796  67.014121  112.164416  11.648415
  11619.023  11619.020  0.500  2.263294  66.926728  112.040517  11.653032
  11622.717  11622.680  0.500  2.261559  66.876368  111.960359  11.664917
  11626.361  11626.350  0.500  2.259987  66.835254  111.910414  11.678056
  11630.083  11630.040  0.500  2.258422  66.797837  111.871311  11.692266
  11633.773  11633.750  0.500  2.256567  66.758413  111.807585  11.707297
  11637.506  11637.480  0.500  2.254696  66.711963  111.749186  11.723099
  11641.253  11641.220  0.500  2.252993  66.672517  111.702978  11.738222
  11645.009  11644.990  0.500  2.251341  66.631653  111.644714  11.751496
  11648.797  11648.780  0.500  2.249801  66.571461  111.563230  11.761019
  11652.587  11652.580  0.500  2.248351  66.392053  111.288174  11.749045
  11656.433  11656.410  0.500  2.246700  66.417646  111.336307  11.773545
  11660.258  11660.250  0.500  2.245504  66.180650  110.964640  11.748290
  11664.132  11664.110  0.500  2.244007  66.249309  111.082581  11.778394
  11668.004  11667.990  0.500  2.242674  66.088365  110.828532  11.767133
  11671.908  11671.890  0.500  2.240854  66.127172  110.907232  11.796942
  11675.838  11675.810  0.500  2.239368  66.078534  110.849058  11.808280
  11679.776  11679.750  0.500  2.237655  65.936927  110.643326  11.806576
  11683.741  11683.710  0.500  2.235841  65.951578  110.665776  11.830408
  11687.709  11687.680  0.500  2.234105  65.873987  110.557402  11.839363
  11691.721  11691.680  0.500  2.232349  65.813534  110.481553  11.852036
  11695.730  11695.690  0.500  2.230591  65.748827  110.395049  11.863599
  11699.760  11699.730  0.500  2.228946  65.684178  110.304746  11.873407
  11703.799  11703.780  0.500  2.227014  65.291893  109.645748  11.825293
  11707.864  11707.850  0.500  2.225175  65.558100  110.115971  11.897869
  11711.950  11711.940  0.500  2.223285  65.491358  110.009098  11.908808
  11716.074  11716.050  0.500  2.221716  65.426722  109.917592  11.917588
  11720.196  11720.180  0.500  2.220265  65.356485  109.837469  11.926190
  11724.356  11724.330  0.500  2.218685  65.276359  109.715618  11.931792
  11728.502  11728.490  0.500  2.217062  65.196261  109.604456  11.939067
  11732.710  11732.680  0.500  2.215596  65.122871  109.489079  11.944002
  11736.904  11736.880  0.500  2.214036  65.022827  109.341069  11.946475
  11741.130  11741.110  0.500  2.212280  64.986127  109.294787  11.962404
  11745.384  11745.350  0.500  2.210610  64.846456  109.073852  11.958171
  11749.634  11749.610  0.500  2.208796  64.824633  109.060126  11.978385
  11753.906  11753.890  0.500  2.206926  64.762179  108.976833  11.991629
  11758.205  11758.190  0.500  2.205070  64.483291  108.529611  11.964604
  11762.526  11762.510  0.500  2.203003  64.619636  108.767159  12.015609
  11766.861  11766.850  0.500  2.200854  64.571770  108.704638  12.034534
  11771.224  11771.210  0.500  2.198736  64.382732  108.403931  12.026685
  11775.614  11775.590  0.500  2.196693  64.360100  108.387423  12.049445
  11780.014  11779.980  0.500  2.194665  64.360834  108.401738  12.075504
  11784.417  11784.400  0.500  2.192468  64.299625  108.324023  12.093392
  11788.842  11788.830  0.500  2.190801  64.225700  108.212575  12.101098
  11793.300  11793.280  0.500  2.189032  64.150296  108.103588  12.110314
  11797.773  11797.750  0.500  2.187359  64.080547  107.995232  12.118433
  11802.269  11802.240  0.500  2.185842  63.997778  107.882822  12.124207
  11806.755  11806.750  0.500  2.184090  63.808928  107.575393  12.110848
  11811.306  11811.280  0.500  2.182389  63.828464  107.636364  12.138352
  11815.848  11815.830  0.500  2.180851  63.754484  107.530202  12.145037
  11820.443  11820.400  0.500  2.179037  63.680052  107.421374  12.154779
  11825.004  11824.980  0.500  2.177370  63.598770  107.302045  12.161524
  11829.618  11829.590  0.500  2.175582  63.327815  106.858330  12.132910
  11834.223  11834.210  0.500  2.173643  63.462209  107.109249  12.185010
  11838.893  11838.860  0.500  2.171902  63.409824  107.033137  12.197564
  11843.543  11843.520  0.500  2.169941  63.335277  106.932195  12.209980
  11848.220  11848.200  0.500  2.167748  63.067594  106.491341  12.186343
  11852.938  11852.900  0.500  2.165728  63.190029  106.719845  12.237185
  11857.641  11857.620  0.500  2.163729  63.057361  106.511085  12.237689
  11862.397  11862.360  0.500  2.161699  62.847699  106.166265  12.222847
  11867.126  11867.110  0.500  2.159695  62.953219  106.365410  12.270349
  11871.927  11871.890  0.500  2.157605  62.814633  106.164200  12.272757
  11876.713  11876.690  0.500  2.155605  62.808818  106.166922  12.297643
  11881.534  11881.500  0.500  2.153620  62.703923  106.012860  12.304192
  11886.346  11886.330  0.500  2.151594  62.304883  105.353802  12.252509
  11891.212  11891.190  0.500  2.149517  62.561509  105.809831  12.331120
  11896.087  11896.060  0.500  2.147788  62.483938  105.692197  12.338733
  11900.980  11900.950  0.500  2.145864  62.045131  104.967599  12.277740
  11905.900  11905.860  0.500  2.143990  62.305308  105.437055  12.355782
  11910.807  11910.790  0.500  2.142127  62.252163  105.361562  12.369955
  11915.767  11915.730  0.500  2.140457  61.996265  104.937500  12.340761
  11920.731  11920.700  0.500  2.138455  62.075241  105.105064  12.385238
  11925.718  11925.690  0.500  2.136353  62.017578  105.022560  12.401560
  11930.716  11930.690  0.500  2.134341  61.932172  104.889526  12.410796
  11935.755  11935.720  0.500  2.131941  61.390612  103.981559  12.332930
  11940.792  11940.760  0.500  2.129945  61.775108  104.658927  12.438070
  11945.845  11945.820  0.500  2.127896  61.689021  104.537634  12.449137
  11950.928  11950.900  0.500  2.125683  61.618121  104.429321  12.463788
  11956.022  11956.000  0.500  2.123742  61.542275  104.323918  12.475405
  11961.157  11961.120  0.500  2.121671  61.450077  104.180213  12.484037
  11966.285  11966.260  0.500  2.119613  61.386300  104.097098  12.499777
  11971.466  11971.420  0.500  2.117693  61.464903  104.247478  12.541892
  11976.628  11976.600  0.500  2.115668  61.396764  104.145573  12.555033
  11981.818  11981.790  0.500  2.113803  61.309363  104.012965  12.562454
  11987.026  11987.010  0.500  2.111813  61.228383  103.902384  12.574093
  11992.276  11992.240  0.500  2.109790  61.150921  103.790270  12.585966
  11997.512  11997.490  0.500  2.107686  61.076755  103.684170  12.599585
  12002.790  12002.760  0.500  2.105696  60.991737  103.556390  12.609116
  12008.092  12008.050  0.500  2.103803  60.902281  103.428099  12.617360
  12013.405  12013.360  0.500  2.101766  60.818633  103.305751  12.628127
  12018.729  12018.690  0.500  2.099552  60.740810  103.196892  12.642788
  12024.082  12024.040  0.500  2.097323  60.657289  103.067877  12.655151
  12029.441  12029.410  0.500  2.095090  60.573458  102.938172  12.667481
  12034.836  12034.790  0.500  2.092985  60.484011  102.806207  12.677907
  12040.248  12040.200  0.500  2.090936  60.374480  102.647410  12.684287
  12045.653  12045.620  0.500  2.088583  60.147253  102.271343  12.667589
  12051.101  12051.070  0.500  2.086464  60.109777  102.229728  12.689286
  12056.566  12056.530  0.500  2.084145  60.104912  102.230033  12.718788
  12062.056  12062.010  0.500  2.082223  60.040492  102.147331  12.732952
  12067.544  12067.510  0.500  2.079860  59.943044  101.997846  12.744393
  12073.075  12073.030  0.500  2.077685  59.851977  101.868468  12.755941
  12078.611  12078.570  0.500  2.075728  59.767778  101.744046  12.765327
  12084.172  12084.120  0.500  2.073489  59.678945  101.604215  12.776352
  12089.731  12089.700  0.500  2.071477  59.590233  101.470914  12.785283
  12095.353  12095.300  0.500  2.069553  59.526408  101.389270  12.799609
  12100.942  12100.910  0.500  2.067514  59.435353  101.243683  12.807310
  12106.600  12106.550  0.500  2.065533  59.336639  101.105598  12.815213
  12112.238  12112.200  0.500  2.063413  59.253110  100.974795  12.825794
  12117.900  12117.870  0.500  2.061428  59.166448  100.854877  12.836007
  12123.606  12123.560  0.500  2.059115  59.054410  100.681492  12.843617
