# XDI/1.0 BlueSky/1.10.0 BMM/2023-1.0-py310-tiled
# Beamline.name: BMM (06BM) -- Beamline for Materials Measurement (NIST)
# Beamline.xray_source: NSLS-II three-pole wiggler
# Beamline.collimation: paraboloid mirror, 5 nm Rh on 30 nm Pt
# Beamline.focusing: not in use
# Beamline.harmonic_rejection: flat mirror, Si stripe, pitch = 7.0 mrad relative to beam
# Beamline.software: Bluesky 1.10.0, Ophyd 1.7.0, DataBroker 2.0.0b13, Python 3.10.8, 2023-1.0-py310-tiled
# Detector.I0: 10 cm N2
# Detector.I1: 25 cm N2
# Detector.I2: 25 cm N2
# Element.symbol: Co
# Element.edge: K
# Element.reference: Co
# Element.reference_material: Co foil
# Facility.name: NSLS-II
# Facility.energy: 3.0
# Facility.current: 399.4
# Facility.mode: top-off
# Facility.GUP: 301027
# Facility.SAF: 310583
# Facility.cycle: 2023-2
# Mono.name: Si(111)
# Mono.d_spacing: 3.1351860
# Mono.encoder_resolution: 0.0000050 deg/ct
# Mono.angle_offset: 16.0754326 deg
# Mono.scan_mode: pseudo channel cut
# Mono.scan_type: step
# Mono.direction: forward in energy
# Sample.name: CoAlO3
# Sample.prep: powder on tape
# Sample.x: 117.785 mm
# Sample.y: 114.695 mm
# Sample.SDD_position: 205.000 mm
# Scan.experimenters: Bruce Ravel
# Scan.edge_energy: 7708.9
# Scan.start_time: 2023-06-23T15:11:46
# Scan.end_time: 2023-06-23T15:20:04
# Scan.transient_id: 84838
# Scan.uid: fd264746-c7ac-4669-8114-d70a649346df
# Scan.plot_hint: ln(I0/It)  --  ln($5/$6)
# Column.1: energy eV
# Column.2: requested_energy eV
# Column.3: measurement_time seconds
# Column.4: xmu 
# Column.5: I0 nA
# Column.6: It nA
# Column.7: Ir nA
# ///////////
# BMM standards collection
# -----------
# energy  requested_energy  measurement_time  xmu  I0  It  Ir
  7508.899  7508.900  0.500  1.171692  147.422789  45.677787  17.464751
  7518.913  7518.900  0.500  1.164480  147.338858  45.982252  17.647636
  7528.917  7528.900  0.500  1.157297  147.191965  46.267520  17.823204
  7538.920  7538.900  0.500  1.150318  147.050160  46.546699  17.998842
  7548.906  7548.900  0.500  1.143041  146.903394  46.839848  18.180527
  7558.906  7558.900  0.500  1.135867  146.760760  47.131294  18.362069
  7568.901  7568.900  0.500  1.128740  146.642301  47.430041  18.546200
  7578.911  7578.900  0.500  1.121835  146.508841  47.715222  18.726216
  7588.907  7588.900  0.500  1.114851  146.282460  47.975383  18.897377
  7598.920  7598.900  0.500  1.107875  145.990547  48.214826  19.062692
  7608.927  7608.900  0.500  1.100864  145.320851  48.331321  19.175959
  7618.914  7618.900  0.500  1.094162  145.285600  48.644552  19.369883
  7628.913  7628.900  0.500  1.087536  145.527725  49.049544  19.598288
  7638.919  7638.900  0.500  1.080684  145.383695  49.337898  19.782288
  7648.923  7648.900  0.500  1.073874  145.203281  49.613380  19.960192
  7658.914  7658.900  0.500  1.067262  145.034537  49.884476  20.132712
  7668.922  7668.900  0.500  1.060657  144.866707  50.156965  20.304463
  7678.909  7678.900  0.500  1.054259  144.641456  50.400391  20.460175
  7680.901  7680.900  0.500  1.052910  144.566322  50.442228  20.487054
  7682.899  7682.900  0.500  1.051719  144.525834  50.488165  20.516862
  7684.893  7684.900  0.500  1.050475  144.434552  50.519111  20.537053
  7686.896  7686.900  0.500  1.049189  144.171431  50.491948  20.533953
  7688.893  7688.900  0.500  1.048067  143.356902  50.263051  20.448308
  7690.903  7690.900  0.500  1.046793  144.527090  50.737928  20.647477
  7692.894  7692.900  0.500  1.045573  144.450157  50.772847  20.663479
  7694.901  7694.900  0.500  1.044401  144.376832  50.806592  20.678525
  7696.897  7696.900  0.500  1.043331  144.341134  50.848372  20.690827
  7698.901  7698.900  0.500  1.042284  144.244049  50.867424  20.686692
  7699.179  7699.200  0.500  1.042175  144.267073  50.881103  20.692051
  7699.480  7699.500  0.500  1.042162  144.240164  50.872263  20.688711
  7699.776  7699.800  0.500  1.041908  144.222005  50.878763  20.685796
  7700.085  7700.100  0.500  1.041781  144.230527  50.888222  20.688443
  7700.380  7700.400  0.500  1.041678  144.206337  50.884961  20.682331
  7700.676  7700.700  0.500  1.041532  144.196446  50.888911  20.681754
  7700.980  7701.000  0.500  1.041276  144.179617  50.895964  20.681650
  7701.281  7701.300  0.500  1.041196  144.162184  50.893905  20.674724
  7701.577  7701.600  0.500  1.041174  144.154457  50.892309  20.671788
  7701.878  7701.900  0.500  1.040977  144.136030  50.895800  20.665091
  7702.179  7702.200  0.500  1.040847  144.126461  50.899042  20.663478
  7702.483  7702.500  0.500  1.040741  144.061356  50.881454  20.648858
  7702.779  7702.800  0.500  1.040645  144.068549  50.888870  20.647143
  7703.085  7703.100  0.500  1.040545  144.057783  50.890149  20.640429
  7703.381  7703.400  0.500  1.040444  144.041887  50.889669  20.631792
  7703.690  7703.700  0.500  1.040346  144.050127  50.897577  20.625352
  7703.991  7704.000  0.500  1.040331  144.012079  50.884915  20.614209
  7704.288  7704.300  0.500  1.040169  143.957683  50.873938  20.596775
  7704.594  7704.600  0.500  1.040108  143.951332  50.874790  20.584167
  7704.893  7704.900  0.500  1.040103  143.898955  50.856527  20.563842
  7705.189  7705.200  0.500  1.040056  143.867527  50.847792  20.545102
  7705.498  7705.500  0.500  1.039993  143.770516  50.816717  20.514799
  7705.794  7705.800  0.500  1.040044  143.688272  50.785048  20.483517
  7706.086  7706.100  0.500  1.039985  143.344584  50.666586  20.412848
  7706.387  7706.400  0.500  1.040051  142.303047  50.295110  20.237023
  7706.691  7706.700  0.500  1.040085  140.881034  49.790809  20.000392
  7706.988  7707.000  0.500  1.040286  140.457614  49.631221  19.899152
  7707.284  7707.300  0.500  1.040522  141.482034  49.981390  19.992651
  7707.591  7707.600  0.500  1.040863  142.952124  50.483487  20.135793
  7707.895  7707.900  0.500  1.041309  143.901412  50.796068  20.182450
  7708.191  7708.200  0.500  1.042120  144.100521  50.825161  20.094384
  7708.495  7708.500  0.500  1.043342  144.071971  50.753035  19.921969
  7708.797  7708.800  0.500  1.045274  144.052834  50.648316  19.672253
  7709.091  7709.100  0.500  1.048304  144.033808  50.488423  19.326255
  7709.395  7709.400  0.500  1.052907  143.999886  50.244736  18.855254
  7709.695  7709.700  0.500  1.057384  143.980089  50.013401  18.342581
  7709.996  7710.000  0.500  1.060296  143.964929  49.862713  17.849551
  7710.288  7710.300  0.500  1.060168  143.933878  49.858348  17.432278
  7710.595  7710.600  0.500  1.057379  143.926767  49.995141  17.082717
  7710.887  7710.900  0.500  1.053674  143.904880  50.173051  16.775722
  7711.196  7711.200  0.500  1.050642  143.900359  50.323843  16.469057
  7711.495  7711.500  0.500  1.048869  143.883093  50.407124  16.174237
  7711.802  7711.800  0.500  1.048141  143.864160  50.437184  15.894595
  7712.104  7712.100  0.500  1.047523  143.840975  50.460244  15.653924
  7712.401  7712.400  0.500  1.047063  143.835212  50.481402  15.466785
  7712.706  7712.700  0.500  1.046607  143.825787  50.501138  15.316277
  7712.997  7713.000  0.500  1.046379  143.803308  50.504767  15.202036
  7713.299  7713.300  0.500  1.046381  144.370162  50.703711  15.170457
  7713.599  7713.600  0.500  1.046844  144.389275  50.686950  15.103375
  7713.896  7713.900  0.500  1.047400  144.377969  50.654856  15.051346
  7714.195  7714.200  0.500  1.048416  144.359004  50.596761  14.999608
  7714.498  7714.500  0.500  1.049613  144.341741  50.530198  14.949252
  7714.800  7714.800  0.500  1.050973  144.335179  50.459187  14.884973
  7715.102  7715.100  0.500  1.053008  144.322497  50.352193  14.793476
  7715.401  7715.400  0.500  1.055547  144.297966  50.216004  14.668280
  7715.704  7715.700  0.500  1.058755  144.291559  50.052950  14.507024
  7716.006  7716.000  0.500  1.062698  144.274527  49.850056  14.313683
  7716.295  7716.300  0.500  1.067299  144.264020  49.617630  14.098397
  7716.595  7716.600  0.500  1.073293  144.239889  49.312869  13.851426
  7716.890  7716.900  0.500  1.081077  144.223573  48.924960  13.585883
  7717.195  7717.200  0.500  1.090857  144.198936  48.440514  13.296092
  7717.497  7717.500  0.500  1.102903  144.178407  47.853696  12.985963
  7717.802  7717.800  0.500  1.117591  144.176780  47.155452  12.656958
  7718.107  7718.100  0.500  1.134812  144.154908  46.343303  12.303118
  7718.402  7718.400  0.500  1.153361  144.138137  45.486292  11.946082
  7718.707  7718.700  0.500  1.173068  144.128860  44.595808  11.577801
  7719.007  7719.000  0.500  1.190787  144.083072  43.798634  11.238176
  7719.304  7719.300  0.500  1.205366  144.016106  43.144671  10.933707
  7719.594  7719.600  0.500  1.215915  143.998263  42.686633  10.680492
  7719.896  7719.900  0.500  1.222933  143.924594  42.366428  10.460131
  7720.199  7720.200  0.500  1.227397  143.800444  42.141366  10.261782
  7720.502  7720.500  0.500  1.230557  143.426675  41.899207  10.057525
  7720.797  7720.800  0.500  1.233360  142.351465  41.468716  9.807371
  7721.102  7721.100  0.500  1.237167  140.834724  40.870958  9.514325
  7721.397  7721.400  0.500  1.242596  140.357390  40.511893  9.274065
  7721.697  7721.700  0.500  1.249859  141.297755  40.488198  9.103734
  7722.005  7722.000  0.500  1.258761  142.898642  40.584042  8.959412
  7722.295  7722.300  0.500  1.268690  143.907093  40.466626  8.774625
  7722.598  7722.600  0.500  1.278716  144.141521  40.128208  8.541176
  7722.898  7722.900  0.500  1.287534  144.141635  39.775951  8.311792
  7723.198  7723.200  0.500  1.294801  144.121036  39.482312  8.098811
  7723.491  7723.500  0.500  1.299898  144.088333  39.272676  7.907462
  7723.801  7723.800  0.500  1.303058  144.081277  39.146821  7.733671
  7724.107  7724.100  0.500  1.304514  144.076694  39.088636  7.584516
  7724.402  7724.400  0.500  1.305184  144.038964  39.052210  7.457174
  7724.705  7724.700  0.500  1.306049  144.054001  39.022548  7.343661
  7725.000  7725.000  0.500  1.308004  144.048455  38.944816  7.243261
  7725.298  7725.300  0.500  1.311250  144.036150  38.815285  7.150476
  7725.593  7725.600  0.500  1.315997  144.021604  38.627569  7.061351
  7725.891  7725.900  0.500  1.322709  144.006569  38.365156  6.973854
  7726.200  7726.200  0.500  1.331482  143.946615  38.014243  6.882724
  7726.500  7726.500  0.500  1.342284  143.979297  37.614353  6.793329
  7726.801  7726.800  0.500  1.355054  143.937612  37.126313  6.697303
  7727.104  7727.100  0.500  1.369353  143.954467  36.603489  6.601666
  7727.407  7727.400  0.500  1.383834  143.932383  36.071729  6.511885
  7727.705  7727.700  0.500  1.397456  143.932857  35.583832  6.433224
  7728.003  7728.000  0.500  1.409308  143.919965  35.161399  6.370885
  7728.299  7728.300  0.500  1.418635  143.883218  34.826095  6.322545
  7728.597  7728.600  0.500  1.425379  143.886107  34.592715  6.296822
  7728.895  7728.900  0.500  1.429007  143.867111  34.462875  6.288349
  7729.203  7729.200  0.500  1.429768  143.854784  34.433732  6.298214
  7729.494  7729.500  0.500  1.428074  143.857581  34.492780  6.321108
  7729.800  7729.800  0.500  1.424007  143.852983  34.632250  6.357300
  7730.093  7730.100  0.500  1.418400  143.853435  34.827060  6.398941
  7730.402  7730.400  0.500  1.411379  143.833452  35.067591  6.443021
  7730.700  7730.700  0.500  1.403582  143.812523  35.336924  6.487132
  7731.003  7731.000  0.500  1.394761  143.794559  35.645543  6.532228
  7731.299  7731.300  0.500  1.385373  143.791046  35.980895  6.572936
  7731.598  7731.600  0.500  1.375745  143.784745  36.327418  6.608532
  7731.899  7731.900  0.500  1.366497  143.786813  36.665441  6.635441
  7732.197  7732.200  0.500  1.358041  143.763071  36.970696  6.650678
  7732.495  7732.500  0.500  1.351111  143.763487  37.227918  6.652671
  7732.802  7732.800  0.500  1.345674  143.747855  37.426800  6.641660
  7733.095  7733.100  0.500  1.341699  143.725380  37.569986  6.623619
  7733.401  7733.400  0.500  1.338403  143.720856  37.692827  6.603860
  7733.707  7733.700  0.500  1.335266  143.700272  37.805843  6.586955
  7733.904  7733.900  0.500  1.333372  143.709471  37.879946  6.579395
  7734.879  7734.890  0.500  1.322740  143.696408  38.281361  6.607428
  7735.916  7735.890  0.500  1.312514  143.619054  38.653987  6.726373
  7736.899  7736.910  0.500  1.304796  143.548686  38.934420  6.872688
  7738.000  7737.960  0.500  1.299144  143.470736  39.133802  6.998925
  7738.994  7739.020  0.500  1.298637  143.315045  39.111175  7.041345
  7740.131  7740.100  0.500  1.304307  141.602662  38.425381  6.955740
  7741.184  7741.200  0.500  1.313024  141.421829  38.043218  6.936819
  7742.307  7742.320  0.500  1.319898  143.564318  38.355006  7.055696
  7743.446  7743.460  0.500  1.317476  143.473452  38.423682  7.111908
  7744.597  7744.610  0.500  1.304912  143.443922  38.901487  7.228464
  7745.785  7745.790  0.500  1.288291  143.429250  39.549433  7.366715
  7746.978  7746.980  0.500  1.273608  143.379861  40.120596  7.478388
  7748.195  7748.200  0.500  1.261652  143.359443  40.597369  7.548934
  7749.425  7749.430  0.500  1.251031  143.292354  41.011650  7.573758
  7750.683  7750.680  0.500  1.240978  143.277062  41.421578  7.561078
  7751.950  7751.950  0.500  1.235668  143.257393  41.636399  7.485272
  7753.248  7753.240  0.500  1.236534  143.226769  41.591493  7.343924
  7754.551  7754.550  0.500  1.241820  143.192894  41.362418  7.168146
  7755.886  7755.880  0.500  1.247488  143.149158  41.116072  6.988782
  7757.231  7757.230  0.500  1.250300  143.127850  40.994523  6.861698
  7758.597  7758.600  0.500  1.250134  143.100853  40.993587  6.809235
  7759.980  7759.980  0.500  1.248405  143.067562  41.054986  6.827012
  7761.391  7761.390  0.500  1.247032  143.021969  41.098263  6.895015
  7762.805  7762.810  0.500  1.245957  143.008682  41.138661  7.018229
  7764.243  7764.250  0.500  1.244599  142.954397  41.178933  7.176452
  7765.715  7765.710  0.500  1.244134  142.930074  41.191072  7.339377
  7767.188  7767.190  0.500  1.246017  142.888690  41.101689  7.468518
  7768.684  7768.690  0.500  1.249511  142.862895  40.950905  7.575375
  7770.214  7770.210  0.500  1.253432  142.797392  40.771964  7.655479
  7771.753  7771.750  0.500  1.257425  142.778708  40.604184  7.700340
  7773.310  7773.310  0.500  1.261475  142.734444  40.427529  7.703644
  7774.887  7774.880  0.500  1.264916  142.681418  40.273705  7.689028
  7776.487  7776.480  0.500  1.268053  142.659030  40.141264  7.686918
  7778.090  7778.090  0.500  1.272313  142.595207  39.952738  7.685952
  7779.735  7779.730  0.500  1.277745  142.584649  39.733339  7.673882
  7781.397  7781.380  0.500  1.282692  142.553773  39.528727  7.644397
  7783.056  7783.050  0.500  1.284860  142.507577  39.430319  7.608247
  7784.740  7784.740  0.500  1.283504  142.453230  39.468781  7.574759
  7786.456  7786.450  0.500  1.279227  142.407324  39.625159  7.563106
  7788.175  7788.180  0.500  1.274021  142.360199  39.818825  7.565021
  7789.941  7789.930  0.500  1.268759  142.350887  40.026254  7.554675
  7791.700  7791.690  0.500  1.264674  142.316678  40.180447  7.514379
  7793.484  7793.480  0.500  1.261474  142.277252  40.298069  7.462681
  7795.286  7795.280  0.500  1.258551  142.242216  40.406073  7.419463
  7797.123  7797.110  0.500  1.256571  142.173269  40.466533  7.362325
  7798.954  7798.950  0.500  1.255780  142.139713  40.489011  7.285593
  7800.818  7800.810  0.500  1.254541  142.078141  40.521642  7.186471
  7802.692  7802.690  0.500  1.252236  142.072261  40.613456  7.087596
  7804.606  7804.590  0.500  1.248924  142.010817  40.730571  7.004423
  7806.525  7806.510  0.500  1.244811  141.976143  40.888487  6.962737
  7808.462  7808.450  0.500  1.239819  141.919047  41.076560  6.973583
  7810.415  7810.410  0.500  1.234783  141.893485  41.276522  7.040640
  7812.389  7812.380  0.500  1.230419  141.851085  41.444648  7.146273
  7814.389  7814.380  0.500  1.227845  141.787592  41.532876  7.258993
  7816.397  7816.390  0.500  1.228102  141.738077  41.507677  7.364859
  7818.424  7818.420  0.500  1.230460  141.694215  41.397123  7.473134
  7820.479  7820.480  0.500  1.232672  141.641099  41.290151  7.579527
  7822.556  7822.550  0.500  1.233862  141.602616  41.229839  7.668457
  7824.644  7824.640  0.500  1.233394  141.519528  41.224970  7.765443
  7826.762  7826.750  0.500  1.231054  141.506934  41.317866  7.911933
  7828.892  7828.880  0.500  1.227449  141.434213  41.445765  8.087105
  7831.029  7831.020  0.500  1.223093  141.223758  41.564746  8.250029
  7833.198  7833.190  0.500  1.218462  141.266395  41.770293  8.388396
  7835.386  7835.380  0.500  1.213904  141.327172  41.979175  8.471944
  7837.589  7837.580  0.500  1.210254  141.275162  42.117162  8.490960
  7839.804  7839.800  0.500  1.207742  140.308236  41.934127  8.407599
  7842.062  7842.050  0.500  1.206186  141.061993  42.225022  8.391691
  7844.319  7844.310  0.500  1.205148  141.062201  42.268954  8.316091
  7846.603  7846.590  0.500  1.204199  139.943551  41.973557  8.176167
  7848.894  7848.890  0.500  1.203867  140.901430  42.274883  8.180462
  7851.219  7851.210  0.500  1.203852  140.895053  42.273607  8.165567
  7853.555  7853.550  0.500  1.204539  140.800516  42.216266  8.177352
  7855.918  7855.900  0.500  1.205796  140.662128  42.121752  8.195575
  7858.294  7858.280  0.500  1.206950  140.718135  42.089931  8.192113
  7860.687  7860.670  0.500  1.207383  140.688492  42.062876  8.118384
  7863.095  7863.090  0.500  1.207562  140.635427  42.039479  7.971960
  7865.539  7865.520  0.500  1.207638  140.548574  42.010330  7.794414
  7867.976  7867.970  0.500  1.207645  140.518597  42.001076  7.642267
  7870.463  7870.450  0.500  1.207489  140.438724  41.983749  7.537960
  7872.946  7872.940  0.500  1.206229  140.408160  42.027536  7.485173
  7875.462  7875.450  0.500  1.204070  140.750961  42.221171  7.480720
  7877.980  7877.970  0.500  1.201574  140.721918  42.317950  7.494610
  7880.529  7880.520  0.500  1.198523  140.646171  42.424435  7.558464
  7883.101  7883.090  0.500  1.194748  140.601629  42.571416  7.691258
  7885.677  7885.670  0.500  1.190652  140.535527  42.726013  7.877732
  7888.295  7888.280  0.500  1.186807  140.486432  42.875655  8.123504
  7890.909  7890.900  0.500  1.183622  140.411370  42.989441  8.402058
  7893.565  7893.550  0.500  1.180992  140.343689  43.081872  8.690164
  7896.218  7896.210  0.500  1.178401  140.306404  43.182154  8.934602
  7898.907  7898.890  0.500  1.175941  139.843953  43.145862  9.062224
  7901.611  7901.590  0.500  1.173743  140.075851  43.312506  9.123808
  7904.328  7904.310  0.500  1.171383  140.048195  43.406255  9.078361
  7907.060  7907.050  0.500  1.169485  139.986761  43.469625  8.980544
  7909.810  7909.800  0.500  1.168281  139.878220  43.488250  8.870434
  7912.589  7912.580  0.500  1.167584  139.859990  43.512909  8.776568
  7915.389  7915.370  0.500  1.166818  139.791115  43.524797  8.705989
  7918.214  7918.190  0.500  1.165057  139.716294  43.578188  8.677314
  7921.034  7921.020  0.500  1.162239  139.646721  43.679410  8.689380
  7923.894  7923.870  0.500  1.159275  139.568737  43.784617  8.723648
  7926.769  7926.750  0.500  1.156577  139.509849  43.884374  8.769787
  7929.657  7929.640  0.500  1.154401  139.119361  43.856879  8.804289
  7932.571  7932.550  0.500  1.151967  139.298543  44.020365  8.893679
  7935.493  7935.470  0.500  1.149168  139.194910  44.110925  8.973044
  7938.441  7938.420  0.500  1.146490  138.686965  44.067778  8.995127
  7941.400  7941.390  0.500  1.144243  139.283931  44.357042  9.017328
  7944.391  7944.370  0.500  1.142511  139.125566  44.383422  8.927991
  7947.403  7947.380  0.500  1.141286  139.012597  44.401739  8.826693
  7950.420  7950.400  0.500  1.140095  138.382573  44.253172  8.712711
  7953.477  7953.450  0.500  1.138175  138.745553  44.454536  8.688482
  7956.531  7956.510  0.500  1.135414  138.694182  44.560945  8.670423
  7959.601  7959.590  0.500  1.132399  138.604329  44.666532  8.686841
  7962.712  7962.690  0.500  1.129603  138.489272  44.754400  8.747766
  7965.830  7965.810  0.500  1.128087  138.417180  44.798977  8.852317
  7968.965  7968.950  0.500  1.127719  138.286798  44.773240  8.980949
  7972.118  7972.100  0.500  1.127640  138.124498  44.724241  9.122372
  7975.299  7975.280  0.500  1.126786  137.976597  44.714495  9.262205
  7978.482  7978.470  0.500  1.124943  137.755715  44.725274  9.375983
  7981.709  7981.690  0.500  1.122625  137.355136  44.698718  9.445376
  7984.933  7984.920  0.500  1.120168  137.529270  44.865487  9.521060
  7988.186  7988.170  0.500  1.117696  137.416852  44.939749  9.555646
  7991.470  7991.450  0.500  1.115071  137.359808  45.039171  9.598291
  7994.757  7994.740  0.500  1.112401  137.271069  45.130421  9.642061
  7998.068  7998.050  0.500  1.109489  137.141942  45.219448  9.686951
  8001.385  8001.370  0.500  1.106495  137.078350  45.334029  9.731293
  8004.741  8004.720  0.500  1.103648  136.968637  45.426892  9.760034
  8008.115  8008.090  0.500  1.101372  136.977890  45.533452  9.776203
  8011.490  8011.470  0.500  1.099569  137.006854  45.625264  9.777490
  8014.899  8014.880  0.500  1.097756  136.970018  45.695762  9.768979
  8018.315  8018.300  0.500  1.095787  136.924252  45.770552  9.765983
  8021.784  8021.750  0.500  1.093424  136.833512  45.848427  9.771528
  8025.229  8025.210  0.500  1.090481  136.741012  45.952474  9.789981
  8028.707  8028.690  0.500  1.087537  136.636020  46.052572  9.805096
  8032.211  8032.190  0.500  1.084672  136.539149  46.151945  9.815137
  8035.734  8035.710  0.500  1.081875  136.418901  46.240471  9.814549
  8039.274  8039.250  0.500  1.079451  136.302533  46.313158  9.802368
  8042.817  8042.800  0.500  1.077588  136.201937  46.365276  9.795939
  8046.397  8046.380  0.500  1.075675  136.101881  46.419924  9.813355
  8049.996  8049.980  0.500  1.073599  135.961423  46.468363  9.857093
  8053.613  8053.590  0.500  1.071379  135.779793  46.509453  9.918853
  8057.244  8057.220  0.500  1.069015  135.115963  46.391587  9.968960
  8060.896  8060.880  0.500  1.066422  135.832592  46.758723  10.126463
  8064.567  8064.550  0.500  1.063590  135.604872  46.812749  10.206239
  8068.256  8068.240  0.500  1.060779  135.239817  46.818150  10.252520
  8071.974  8071.950  0.500  1.058352  135.306686  46.955104  10.300391
  8075.697  8075.680  0.500  1.056129  135.201897  47.023176  10.326988
  8079.442  8079.420  0.500  1.053808  129.635862  45.192056  9.953140
  8083.209  8083.190  0.500  1.051366  135.050670  47.194809  10.452834
  8087.002  8086.980  0.500  1.048741  134.826596  47.240362  10.541029
  8090.799  8090.780  0.500  1.046125  133.410250  46.866556  10.518409
  8094.644  8094.610  0.500  1.043938  134.858636  47.479078  10.688659
  8098.471  8098.450  0.500  1.041824  134.673981  47.514413  10.720094
  8102.336  8102.310  0.500  1.039912  134.521326  47.551388  10.753509
  8106.204  8106.190  0.500  1.037779  134.392241  47.607163  10.785660
  8110.106  8110.090  0.500  1.035418  134.258870  47.672348  10.813634
  8114.024  8114.010  0.500  1.032847  134.137574  47.751924  10.840224
  8117.972  8117.950  0.500  1.030443  134.022268  47.825705  10.860569
  8121.926  8121.910  0.500  1.028086  133.897086  47.893751  10.876611
  8125.898  8125.880  0.500  1.026164  133.743367  47.930836  10.884999
  8129.891  8129.880  0.500  1.024047  133.604406  47.982473  10.893829
  8133.905  8133.890  0.500  1.021541  133.409357  48.032677  10.906197
  8137.944  8137.930  0.500  1.018651  133.308542  48.135254  10.932059
  8142.000  8141.980  0.500  1.015704  133.134434  48.214293  10.953776
  8146.075  8146.050  0.500  1.013017  133.036832  48.308570  10.979075
  8150.157  8150.140  0.500  1.010537  132.900057  48.378756  11.009899
  8154.274  8154.250  0.500  1.008184  132.726878  48.429506  11.045955
  8158.390  8158.380  0.500  1.005468  132.536546  48.491591  11.097735
  8162.548  8162.530  0.500  1.002927  132.460471  48.587068  11.173516
  8166.701  8166.690  0.500  1.000195  132.344323  48.677260  11.250093
  8170.893  8170.880  0.500  0.997453  132.205641  48.759768  11.317712
  8175.089  8175.080  0.500  0.994558  132.025967  48.834666  11.375615
  8179.324  8179.310  0.500  0.991735  131.857525  48.910234  11.420355
  8183.561  8183.550  0.500  0.988963  131.707107  48.990073  11.461089
  8187.825  8187.810  0.500  0.986289  131.549883  49.062623  11.497935
  8192.100  8192.090  0.500  0.983910  131.415246  49.129116  11.539141
  8196.397  8196.390  0.500  0.981582  131.254869  49.183560  11.585649
  8200.709  8200.710  0.500  0.979277  131.079384  49.231116  11.638631
  8205.058  8205.050  0.500  0.976859  130.942757  49.298858  11.700410
  8209.415  8209.410  0.500  0.974174  130.780621  49.370206  11.757661
  8213.805  8213.790  0.500  0.971465  130.538378  49.412433  11.803447
  8218.192  8218.180  0.500  0.968811  130.437432  49.505429  11.862257
  8222.615  8222.600  0.500  0.966249  130.266205  49.567273  11.913676
  8227.043  8227.030  0.500  0.963624  130.144360  49.651071  11.968539
  8231.506  8231.480  0.500  0.961082  129.885110  49.678306  12.005411
  8235.973  8235.950  0.500  0.958583  129.786040  49.764636  12.048436
  8240.459  8240.440  0.500  0.955991  129.615158  49.828087  12.078281
  8244.960  8244.950  0.500  0.953361  129.455981  49.897958  12.105911
  8249.500  8249.480  0.500  0.950779  129.304847  49.968555  12.131894
  8254.049  8254.030  0.500  0.948154  129.112487  50.025345  12.149052
  8258.614  8258.600  0.500  0.945462  128.926758  50.088060  12.164442
  8263.202  8263.180  0.500  0.942690  128.734648  50.152239  12.184090
  8267.808  8267.790  0.500  0.940127  128.576690  50.219239  12.214012
  8272.436  8272.410  0.500  0.937349  128.365307  50.276166  12.253622
  8277.084  8277.060  0.500  0.934785  128.184020  50.334048  12.310872
  8281.746  8281.720  0.500  0.932385  127.931562  50.355628  12.364804
  8286.422  8286.400  0.500  0.929777  127.779210  50.426994  12.428777
  8291.116  8291.100  0.500  0.927090  127.620110  50.499720  12.489009
  8295.842  8295.820  0.500  0.924391  127.407826  50.551987  12.540026
  8300.576  8300.560  0.500  0.921632  127.213214  50.614230  12.591131
  8305.337  8305.310  0.500  0.918901  126.975828  50.657906  12.634964
  8310.106  8310.090  0.500  0.916226  126.755574  50.705512  12.679135
  8314.901  8314.890  0.500  0.913455  125.156790  50.204874  12.582821
  8319.735  8319.700  0.500  0.910805  126.117589  50.724550  12.745620
  8324.572  8324.530  0.500  0.908181  126.106247  50.853250  12.809690
  8329.418  8329.390  0.500  0.905448  125.973584  50.938761  12.864151
  8334.311  8334.260  0.500  0.902900  125.644833  50.935427  12.887046
  8339.203  8339.150  0.500  0.900314  125.418792  50.975457  12.925125
  8344.072  8344.060  0.500  0.897606  125.108611  50.987269  12.955787
  8348.983  8348.990  0.500  0.894950  124.783394  50.989971  12.980172
  8353.975  8353.930  0.500  0.892023  124.303964  50.942978  13.001433
  8358.882  8358.900  0.500  0.889173  124.131320  51.017404  13.046707
  8363.877  8363.890  0.500  0.886378  123.928697  51.076700  13.091095
  8368.872  8368.890  0.500  0.883601  123.787738  51.160452  13.142828
  8373.894  8373.920  0.500  0.880822  123.605109  51.227153  13.183547
  8378.973  8378.960  0.500  0.878151  123.394357  51.276586  13.217967
  8384.011  8384.020  0.500  0.875411  123.167919  51.322914  13.252397
  8389.088  8389.100  0.500  0.872653  122.865427  51.338263  13.281216
  8394.165  8394.200  0.500  0.869948  122.618959  51.374069  13.320594
  8399.303  8399.320  0.500  0.867154  122.345784  51.403058  13.355559
  8404.445  8404.460  0.500  0.864389  122.102529  51.442858  13.396034
  8409.626  8409.620  0.500  0.861758  121.914400  51.498916  13.439999
  8414.784  8414.800  0.500  0.859014  121.682375  51.542163  13.482239
  8419.963  8419.990  0.500  0.856269  121.438060  51.580052  13.524793
  8425.207  8425.210  0.500  0.853644  121.181311  51.606310  13.566234
  8430.411  8430.440  0.500  0.850844  120.931484  51.644319  13.611640
  8435.675  8435.690  0.500  0.848140  120.640677  51.659624  13.652904
  8441.015  8440.960  0.500  0.845443  120.382018  51.688067  13.697883
  8446.231  8446.250  0.500  0.842582  120.142039  51.732829  13.743813
  8451.545  8451.560  0.500  0.839945  119.819453  51.730153  13.781827
  8456.878  8456.890  0.500  0.837202  119.578604  51.767993  13.830919
  8462.222  8462.240  0.500  0.834351  119.297880  51.793935  13.871479
  8467.627  8467.610  0.500  0.831575  119.029477  51.821053  13.914023
  8472.963  8472.990  0.500  0.828861  118.752422  51.840912  13.953216
  8478.365  8478.400  0.500  0.826046  118.418204  51.840743  13.988781
  8483.798  8483.820  0.500  0.823122  118.133389  51.867520  14.032245
  8489.300  8489.270  0.500  0.820444  117.851713  51.882600  14.069911
  8494.738  8494.730  0.500  0.817464  117.563295  51.910096  14.113331
  8500.268  8500.210  0.500  0.814705  117.275378  51.926018  14.150269
  8505.727  8505.710  0.500  0.811874  116.945171  51.926589  14.185852
  8511.199  8511.230  0.500  0.808894  116.584644  51.921012  14.217168
  8516.825  8516.770  0.500  0.806124  116.218751  51.901651  14.244441
  8522.346  8522.320  0.500  0.803289  115.820725  51.870702  14.266839
  8527.891  8527.900  0.500  0.800679  114.876644  51.582358  14.218208
  8533.521  8533.500  0.500  0.797927  114.808890  51.694014  14.279227
  8539.074  8539.110  0.500  0.795156  115.236127  52.030380  14.403815
  8544.716  8544.750  0.500  0.792266  114.824074  51.994372  14.430163
  8550.422  8550.400  0.500  0.789429  114.449534  51.971976  14.458594
  8556.051  8556.070  0.500  0.786587  114.093251  51.957647  14.488925
  8561.742  8561.760  0.500  0.783726  113.711795  51.932313  14.516154
