# XDI/1.0 BlueSky/1.10.0 BMM/2023-1.0-py310-tiled
# Beamline.name: BMM (06BM) -- Beamline for Materials Measurement (NIST)
# Beamline.xray_source: NSLS-II three-pole wiggler
# Beamline.collimation: paraboloid mirror, 5 nm Rh on 30 nm Pt
# Beamline.focusing: not in use
# Beamline.harmonic_rejection: flat mirror, Si stripe, pitch = 7.0 mrad relative to beam
# Beamline.software: Bluesky 1.10.0, Ophyd 1.7.0, DataBroker 2.0.0b13, Python 3.10.8, 2023-1.0-py310-tiled
# Detector.I0: 10 cm N2
# Detector.I1: 25 cm N2
# Detector.I2: 25 cm N2
# Element.symbol: Gd
# Element.edge: L3
# Element.reference: Gd
# Element.reference_material: Gd2O3
# Facility.name: NSLS-II
# Facility.energy: 3.0
# Facility.current: 399.5
# Facility.mode: top-off
# Facility.GUP: 301027
# Facility.SAF: 310583
# Facility.cycle: 2023-2
# Mono.name: Si(111)
# Mono.d_spacing: 3.1351860
# Mono.encoder_resolution: 0.0000050 deg/ct
# Mono.angle_offset: 16.0754326 deg
# Mono.scan_mode: pseudo channel cut
# Mono.scan_type: step
# Mono.direction: forward in energy
# Sample.name: Gd2O3
# Sample.prep: PEG pellet
# Sample.x: 109.138 mm
# Sample.y: 153.150 mm
# Sample.SDD_position: 205.000 mm
# Scan.experimenters: Bruce Ravel
# Scan.edge_energy: 7242.8
# Scan.start_time: 2023-05-28T13:39:14
# Scan.end_time: 2023-05-28T13:46:36
# Scan.transient_id: 78728
# Scan.uid: 14216575-1ced-4e4f-b610-4821de4d762e
# Scan.plot_hint: ln(It/Ir)  --  ln($6/$7)
# Column.1: energy eV
# Column.2: requested_energy eV
# Column.3: measurement_time seconds
# Column.4: xmu 
# Column.5: I0 nA
# Column.6: It nA
# Column.7: Ir nA
# ///////////
# sample courtesy Martin Stennett, University of Sheffield
# -----------
# energy  requested_energy  measurement_time  xmu  I0  It  Ir
  7042.819  7042.800  0.500  1.945082  154.661003  149.401271  21.360717
  7052.812  7052.800  0.500  1.937030  154.599785  149.832715  21.595596
  7062.820  7062.800  0.500  1.928931  153.268923  149.012802  21.652065
  7072.816  7072.800  0.500  1.920842  154.440466  150.554286  22.053723
  7082.854  7082.800  0.500  1.912862  153.750503  150.295384  22.192183
  7092.816  7092.800  0.500  1.904965  154.264538  151.304770  22.518374
  7102.797  7102.800  0.500  1.897017  154.214691  151.704307  22.757993
  7112.813  7112.800  0.500  1.889046  154.199043  152.144634  23.006708
  7122.819  7122.800  0.500  1.881409  154.019329  152.399072  23.221841
  7132.827  7132.800  0.500  1.873868  153.450222  152.244615  23.373917
  7142.803  7142.800  0.500  1.866169  153.433627  152.694501  23.624163
  7152.809  7152.800  0.500  1.858355  153.440402  153.120185  23.875877
  7162.808  7162.800  0.500  1.850794  153.345621  153.434750  24.106498
  7172.814  7172.800  0.500  1.843280  153.122103  153.646512  24.321825
  7182.812  7182.800  0.500  1.835961  152.997253  153.962037  24.550817
  7192.809  7192.800  0.500  1.828753  150.585251  151.959020  24.406715
  7202.812  7202.800  0.500  1.821844  152.605659  154.427239  24.975091
  7212.805  7212.800  0.500  1.815825  152.335617  154.589949  25.152353
  7214.806  7214.800  0.500  1.814676  152.327598  154.675004  25.195128
  7216.797  7216.800  0.500  1.813699  152.228844  154.661244  25.217499
  7218.803  7218.800  0.500  1.812809  152.192379  154.721849  25.249835
  7220.799  7220.800  0.500  1.812137  152.113893  154.731052  25.268332
  7222.795  7222.800  0.500  1.811532  152.094594  154.760583  25.288449
  7224.800  7224.800  0.500  1.811211  152.034673  154.789401  25.301277
  7226.799  7226.800  0.500  1.811228  151.865881  154.679882  25.282934
  7228.804  7228.800  0.500  1.811735  150.666213  153.579065  25.090273
  7230.808  7230.800  0.500  1.812972  152.027696  155.057623  25.300505
  7232.810  7232.800  0.500  1.815385  151.994028  155.095339  25.245672
  7233.088  7233.100  0.500  1.815790  151.968959  155.048248  25.227783
  7233.381  7233.400  0.500  1.816294  151.976991  155.091407  25.222114
  7233.683  7233.700  0.500  1.816888  151.954464  155.055592  25.201303
  7233.985  7234.000  0.500  1.817488  151.939194  155.097203  25.192949
  7234.288  7234.300  0.500  1.818155  151.902694  155.031761  25.165522
  7234.585  7234.600  0.500  1.818942  151.922280  155.043692  25.147657
  7234.885  7234.900  0.500  1.819770  151.878398  155.015849  25.122334
  7235.185  7235.200  0.500  1.820669  151.890110  155.029688  25.101992
  7235.487  7235.500  0.500  1.821659  151.863649  155.069990  25.083692
  7235.788  7235.800  0.500  1.822729  151.878695  155.119692  25.064884
  7236.083  7236.100  0.500  1.823907  151.857329  155.087118  25.030134
  7236.390  7236.400  0.500  1.825202  151.855505  155.058489  24.993111
  7236.690  7236.700  0.500  1.826607  151.852486  155.053111  24.957158
  7236.990  7237.000  0.500  1.828306  151.836165  155.101571  24.922587
  7237.284  7237.300  0.500  1.829933  151.825059  155.090122  24.880225
  7237.584  7237.600  0.500  1.831784  151.827525  155.090139  24.834207
  7237.893  7237.900  0.500  1.833888  151.846958  155.107616  24.784813
  7238.189  7238.200  0.500  1.836147  151.812851  155.071724  24.723176
  7238.483  7238.500  0.500  1.838815  151.801102  155.080974  24.658767
  7238.790  7238.800  0.500  1.841882  151.805963  155.132235  24.591371
  7239.090  7239.100  0.500  1.845330  151.808400  155.122404  24.505180
  7239.397  7239.400  0.500  1.849211  151.815221  155.150959  24.414742
  7239.697  7239.700  0.500  1.853527  151.770310  155.142948  24.308339
  7239.993  7240.000  0.500  1.858158  151.752384  155.136830  24.195094
  7240.298  7240.300  0.500  1.863554  151.748008  155.156816  24.067973
  7240.599  7240.600  0.500  1.869494  151.753601  155.165807  23.926825
  7240.906  7240.900  0.500  1.875810  151.741944  155.153442  23.774289
  7241.200  7241.200  0.500  1.882373  151.736825  155.165471  23.620604
  7241.498  7241.500  0.500  1.889305  151.739506  155.186487  23.460592
  7241.796  7241.800  0.500  1.896255  151.768731  155.245348  23.306963
  7242.104  7242.100  0.500  1.904393  151.730844  155.203108  23.111760
  7242.398  7242.400  0.500  1.912903  151.703385  155.156013  22.908950
  7242.694  7242.700  0.500  1.922797  151.710403  155.176271  22.686370
  7242.995  7243.000  0.500  1.935058  151.681762  155.160009  22.407582
  7243.302  7243.300  0.500  1.950040  151.647674  155.139368  22.071426
  7243.605  7243.600  0.500  1.967928  151.639401  155.183256  21.686247
  7243.915  7243.900  0.500  1.989179  151.557533  155.090849  21.217613
  7244.209  7244.200  0.500  2.012549  151.326071  154.860146  20.696691
  7244.579  7244.500  0.500  2.044304  150.513447  154.048925  19.944756
  7244.781  7244.800  0.500  2.068178  149.802602  153.369018  19.388290
  7245.084  7245.100  0.500  2.103051  149.121181  152.707351  18.643029
  7245.421  7245.400  0.500  2.143985  148.889280  152.504923  17.871577
  7245.722  7245.700  0.500  2.181499  149.601723  153.197704  17.291764
  7246.016  7246.000  0.500  2.213866  150.616095  154.252462  16.856307
  7246.308  7246.300  0.500  2.243477  151.128221  154.781415  16.420609
  7246.616  7246.600  0.500  2.269677  151.336610  154.952597  16.013667
  7246.908  7246.900  0.500  2.290531  151.364637  155.003964  15.688366
  7247.200  7247.200  0.500  2.308360  151.408196  155.053656  15.416087
  7247.506  7247.500  0.500  2.324637  151.490531  155.143343  15.175955
  7247.800  7247.800  0.500  2.338809  151.476792  155.158765  14.963892
  7248.099  7248.100  0.500  2.351613  151.481964  155.172452  14.774822
  7248.400  7248.400  0.500  2.362564  151.448463  155.253671  14.621543
  7248.706  7248.700  0.500  2.370820  151.457384  155.208337  14.497093
  7249.007  7249.000  0.500  2.375979  151.449815  155.214877  14.423108
  7249.306  7249.300  0.500  2.377145  151.408511  155.199332  14.404853
  7249.605  7249.600  0.500  2.373897  151.432684  155.251330  14.456563
  7249.906  7249.900  0.500  2.365645  151.400631  155.193191  14.570884
  7250.205  7250.200  0.500  2.352750  151.426691  155.224992  14.763029
  7250.507  7250.500  0.500  2.335903  151.406232  155.234134  15.014735
  7250.799  7250.800  0.500  2.316685  151.372803  155.213357  15.304030
  7251.098  7251.100  0.500  2.295204  151.379651  155.208024  15.635784
  7251.409  7251.400  0.500  2.271312  151.349474  155.167111  16.009634
  7251.699  7251.700  0.500  2.247666  151.330135  155.193280  16.395471
  7251.996  7252.000  0.500  2.223785  151.296004  155.128665  16.784742
  7252.297  7252.300  0.500  2.199950  151.286147  155.181464  17.195461
  7252.601  7252.600  0.500  2.178034  151.252905  155.150677  17.572988
  7252.905  7252.900  0.500  2.157651  151.206329  155.119477  17.931242
  7253.204  7253.200  0.500  2.139651  151.140562  155.074237  18.251602
  7253.499  7253.500  0.500  2.123332  151.035886  154.996000  18.542529
  7253.803  7253.800  0.500  2.107991  150.825858  154.781103  18.803082
  7254.111  7254.100  0.500  2.094314  150.268986  154.227154  18.993802
  7254.404  7254.400  0.500  2.082363  149.381736  153.288094  19.105112
  7254.703  7254.700  0.500  2.071465  148.714997  152.633232  19.231943
  7254.998  7255.000  0.500  2.061946  149.047069  153.004233  19.463084
  7255.305  7255.300  0.500  2.053485  150.062827  154.042351  19.761635
  7255.598  7255.600  0.500  2.046372  151.033545  155.070547  20.035551
  7255.899  7255.900  0.500  2.039647  151.423784  155.497676  20.226301
  7256.199  7256.200  0.500  2.033559  151.427190  155.531345  20.354218
  7256.499  7256.500  0.500  2.028074  151.405310  155.450090  20.455487
  7256.803  7256.800  0.500  2.023215  151.372101  155.428443  20.552258
  7257.096  7257.100  0.500  2.018913  151.351603  155.446761  20.643300
  7257.400  7257.400  0.500  2.015138  151.326709  155.477758  20.725496
  7257.711  7257.700  0.500  2.011628  151.313304  155.391315  20.786807
  7258.004  7258.000  0.500  2.008676  151.279051  155.378106  20.846492
  7258.297  7258.300  0.500  2.005959  151.255018  155.390146  20.904825
  7258.601  7258.600  0.500  2.003394  151.222650  155.369820  20.955778
  7258.903  7258.900  0.500  2.000860  151.192322  155.357376  21.007262
  7259.203  7259.200  0.500  1.998715  151.163026  155.366528  21.053611
  7259.498  7259.500  0.500  1.996745  151.142315  155.387370  21.097947
  7259.796  7259.800  0.500  1.994988  151.108387  155.328654  21.127075
  7260.100  7260.100  0.500  1.993392  151.071949  155.300281  21.156948
  7260.396  7260.400  0.500  1.992008  151.020409  155.258256  21.180519
  7260.698  7260.700  0.500  1.990928  151.000128  155.255302  21.203005
  7260.996  7261.000  0.500  1.989991  150.927932  155.199709  21.215277
  7261.296  7261.300  0.500  1.989422  150.820524  155.098559  21.213517
  7261.605  7261.600  0.500  1.989011  150.748739  155.028362  21.212642
  7261.905  7261.900  0.500  1.988745  150.644862  154.950197  21.207572
  7262.201  7262.200  0.500  1.988859  150.445480  154.768995  21.180364
  7262.503  7262.500  0.500  1.988965  150.227857  154.536240  21.146265
  7262.801  7262.800  0.500  1.989304  149.905338  154.197544  21.092778
  7263.108  7263.100  0.500  1.989725  149.368374  153.661052  21.010548
  7263.403  7263.400  0.500  1.990078  148.483413  152.767916  20.881050
  7263.697  7263.700  0.500  1.990359  146.672646  150.939607  20.625346
  7263.997  7264.000  0.500  1.990498  142.321515  146.461100  20.010595
  7264.298  7264.300  0.500  1.990435  134.139938  138.027882  18.859574
  7264.596  7264.600  0.500  1.990852  126.354725  130.044301  17.761327
  7264.896  7264.900  0.500  1.991882  124.115669  127.759233  17.431273
  7265.196  7265.200  0.500  1.992576  128.180340  131.953725  17.991064
  7265.503  7265.500  0.500  1.992928  137.007023  141.028316  19.221567
  7265.799  7265.800  0.500  1.992720  145.717510  149.993275  20.447707
  7266.100  7266.100  0.500  1.992195  149.498872  153.937728  20.996442
  7266.402  7266.400  0.500  1.991841  150.558496  155.035456  21.153651
  7266.707  7266.700  0.500  1.991314  150.992501  155.462750  21.223149
  7267.001  7267.000  0.500  1.990967  151.155277  155.643426  21.255184
  7267.300  7267.300  0.500  1.990176  151.257684  155.782764  21.291035
  7267.602  7267.600  0.500  1.989446  151.372666  155.877394  21.319525
  7267.802  7267.800  0.500  1.988891  151.358734  155.871760  21.330603
  7268.794  7268.790  0.500  1.985659  151.424232  156.001405  21.417447
  7269.799  7269.790  0.500  1.982380  151.410226  156.012630  21.489343
  7270.820  7270.810  0.500  1.980192  151.511702  156.190222  21.560923
  7271.878  7271.860  0.500  1.979574  151.754039  156.488675  21.615488
  7272.932  7272.920  0.500  1.981045  151.658804  156.457885  21.579452
  7274.003  7274.000  0.500  1.984065  150.416749  155.229746  21.345512
  7275.116  7275.100  0.500  1.988698  150.612501  155.459267  21.278254
  7276.229  7276.220  0.500  1.993599  151.947584  156.891276  21.369267
  7277.371  7277.360  0.500  1.999583  151.906517  156.858232  21.237308
  7278.514  7278.510  0.500  2.006070  151.869234  156.872658  21.101924
  7279.703  7279.690  0.500  2.013827  151.846162  156.920169  20.945223
  7280.893  7280.880  0.500  2.020831  151.829246  156.896568  20.795889
  7282.110  7282.100  0.500  2.027104  151.800325  156.937590  20.671263
  7283.335  7283.330  0.500  2.030957  151.688699  156.887355  20.585179
  7284.597  7284.580  0.500  2.032125  149.318394  154.493684  20.247440
  7285.851  7285.850  0.500  2.030436  151.151778  156.462015  20.540059
  7287.150  7287.140  0.500  2.026343  151.600536  156.953119  20.689047
  7288.458  7288.450  0.500  2.020819  151.590819  157.006488  20.810710
  7289.790  7289.780  0.500  2.014695  151.614582  157.066928  20.946608
  7291.138  7291.130  0.500  2.008294  151.565267  157.062562  21.080532
  7292.513  7292.500  0.500  2.002698  151.584804  157.125447  21.207316
  7293.887  7293.880  0.500  1.997978  151.531473  157.143196  21.310063
  7295.302  7295.290  0.500  1.993840  151.541059  157.216987  21.408476
  7296.716  7296.710  0.500  1.990032  151.484728  157.173956  21.484263
  7298.155  7298.150  0.500  1.986485  151.457436  157.233176  21.568742
  7299.621  7299.610  0.500  1.983061  151.351354  157.183342  21.635853
  7301.093  7301.090  0.500  1.980142  150.688358  156.558711  21.612862
  7302.599  7302.590  0.500  1.977538  150.985760  156.918003  21.718960
  7304.122  7304.110  0.500  1.975010  151.440765  157.439232  21.846246
  7305.655  7305.650  0.500  1.972832  151.415085  157.511295  21.903918
  7307.220  7307.210  0.500  1.970572  151.364617  157.506876  21.952849
  7308.785  7308.780  0.500  1.968649  151.343750  157.556791  22.002085
  7310.395  7310.380  0.500  1.967071  151.309623  157.571710  22.038905
  7311.996  7311.990  0.500  1.965999  151.300766  157.640989  22.072257
  7313.639  7313.630  0.500  1.965258  151.256340  157.664286  22.091887
  7315.294  7315.280  0.500  1.965210  151.212583  157.711852  22.099599
  7316.961  7316.950  0.500  1.965716  151.201210  157.769630  22.096513
  7318.661  7318.640  0.500  1.966801  151.151333  157.792201  22.075705
  7320.352  7320.350  0.500  1.967902  151.123182  157.848074  22.059228
  7322.090  7322.080  0.500  1.969251  151.094555  157.877242  22.033555
  7323.836  7323.830  0.500  1.970512  151.041847  157.899906  22.008942
  7325.601  7325.590  0.500  1.971434  151.025390  157.958101  21.996775
  7327.389  7327.380  0.500  1.971979  150.989580  157.984343  21.988438
  7329.190  7329.180  0.500  1.971858  151.004786  158.088041  22.005533
  7331.026  7331.010  0.500  1.971250  150.940168  158.091846  22.019456
  7332.871  7332.850  0.500  1.970283  150.900516  158.121844  22.044927
  7334.730  7334.710  0.500  1.968875  150.844053  158.144120  22.079108
  7336.601  7336.590  0.500  1.967113  150.845935  158.247922  22.132553
  7338.507  7338.490  0.500  1.965400  150.328798  157.756948  22.101733
  7340.419  7340.410  0.500  1.963807  150.017024  157.474247  22.097286
  7342.368  7342.350  0.500  1.962159  150.533227  158.076558  22.218390
  7344.325  7344.310  0.500  1.960455  150.550986  158.217436  22.276127
  7346.298  7346.280  0.500  1.958737  150.542544  158.317652  22.328553
  7348.292  7348.280  0.500  1.957115  150.540911  158.365582  22.371580
  7350.310  7350.290  0.500  1.955700  150.510538  158.398484  22.407909
  7352.333  7352.320  0.500  1.954337  150.457646  158.415063  22.440808
  7354.393  7354.380  0.500  1.953243  150.439519  158.514239  22.479441
  7356.463  7356.450  0.500  1.951969  150.451868  158.591113  22.519022
  7358.557  7358.540  0.500  1.950446  150.422947  158.661699  22.563377
  7360.671  7360.650  0.500  1.948483  150.335482  158.655190  22.606780
  7362.795  7362.780  0.500  1.945784  150.297803  158.698095  22.674011
  7364.939  7364.920  0.500  1.942627  150.252425  158.727291  22.749898
  7367.100  7367.090  0.500  1.939051  150.193316  158.761855  22.836358
  7369.300  7369.280  0.500  1.935389  150.183685  158.840953  22.931558
  7371.490  7371.480  0.500  1.931742  150.113661  158.828328  23.013524
  7373.720  7373.700  0.500  1.928315  150.081350  158.885823  23.100894
  7375.967  7375.950  0.500  1.925866  150.018856  158.913163  23.161521
  7378.221  7378.210  0.500  1.924322  149.947801  158.928841  23.199590
  7380.507  7380.490  0.500  1.923618  149.915935  158.978369  23.223156
  7382.803  7382.790  0.500  1.923259  149.869132  159.033737  23.239586
  7385.123  7385.110  0.500  1.922888  149.819039  159.068028  23.253224
  7387.464  7387.450  0.500  1.922341  149.810781  159.173552  23.281389
  7389.816  7389.800  0.500  1.921820  149.755324  159.230772  23.301884
  7392.202  7392.180  0.500  1.921484  149.699551  159.220973  23.308288
  7394.582  7394.570  0.500  1.921729  149.679397  159.280637  23.311309
  7397.006  7396.990  0.500  1.922146  149.673885  159.391176  23.317754
  7399.441  7399.420  0.500  1.921788  149.609928  159.422954  23.330772
  7401.887  7401.870  0.500  1.921239  149.579128  159.481355  23.352120
  7404.371  7404.350  0.500  1.920482  149.493498  159.486934  23.370637
  7406.849  7406.840  0.500  1.919068  149.475396  159.578499  23.417134
  7409.358  7409.350  0.500  1.916765  149.366651  159.568744  23.469680
  7411.885  7411.870  0.500  1.913539  149.339459  159.672047  23.560761
  7414.435  7414.420  0.500  1.910068  149.285992  159.699530  23.646753
  7416.997  7416.990  0.500  1.906627  149.234522  159.725086  23.732071
  7419.586  7419.570  0.500  1.903665  149.186151  159.775359  23.809967
  7422.193  7422.180  0.500  1.901095  149.143439  159.819116  23.877763
  7424.812  7424.800  0.500  1.898852  149.044227  159.818090  23.931237
  7427.467  7427.450  0.500  1.897304  149.036745  159.896633  23.980080
  7430.123  7430.110  0.500  1.895881  148.947211  159.890665  24.013337
  7432.806  7432.790  0.500  1.894617  148.890735  159.930341  24.049669
  7435.503  7435.490  0.500  1.893430  148.810979  159.946725  24.080699
  7438.228  7438.210  0.500  1.892064  148.744316  159.961144  24.115797
  7440.964  7440.950  0.500  1.890735  148.642831  159.966365  24.148648
  7443.707  7443.700  0.500  1.889300  148.509191  159.970459  24.183946
  7446.497  7446.480  0.500  1.887593  144.588120  155.850234  23.601317
  7449.285  7449.270  0.500  1.885656  148.533084  160.212092  24.308904
  7452.108  7452.090  0.500  1.883098  148.275990  160.053861  24.347096
  7454.933  7454.920  0.500  1.880103  147.953102  159.795577  24.380708
  7457.779  7457.770  0.500  1.877130  148.279800  160.266820  24.525428
  7460.665  7460.650  0.500  1.874401  147.148226  159.145032  24.420312
  7463.551  7463.540  0.500  1.871619  148.285669  160.516039  24.699293
  7466.459  7466.450  0.500  1.869340  148.032573  160.320823  24.725542
  7469.378  7469.370  0.500  1.867332  148.300304  160.741480  24.840255
  7472.333  7472.320  0.500  1.865541  148.161143  160.701693  24.878624
  7475.300  7475.290  0.500  1.864023  148.022436  160.637398  24.906456
  7478.279  7478.270  0.500  1.862481  147.968465  160.700128  24.954630
  7481.296  7481.280  0.500  1.861109  147.886214  160.742771  24.995511
  7484.311  7484.300  0.500  1.859769  147.803782  160.774541  25.033989
  7487.357  7487.350  0.500  1.858249  147.707297  160.771666  25.071622
  7490.416  7490.410  0.500  1.856827  147.672905  160.860862  25.121225
  7493.500  7493.490  0.500  1.855303  147.601692  160.897987  25.165341
  7496.600  7496.590  0.500  1.853661  147.532462  160.948502  25.214599
  7499.721  7499.710  0.500  1.851675  147.483454  161.010931  25.274527
  7502.857  7502.850  0.500  1.849342  147.408041  161.050396  25.339781
  7506.009  7506.000  0.500  1.847028  147.309089  161.066337  25.400999
  7509.189  7509.180  0.500  1.844756  147.217724  161.113411  25.466218
  7512.384  7512.370  0.500  1.842227  147.143956  161.104434  25.529268
  7515.593  7515.590  0.500  1.839653  147.060932  161.092781  25.593208
  7518.832  7518.820  0.500  1.836952  147.008012  161.194627  25.678664
  7522.083  7522.070  0.500  1.834174  146.881779  161.222135  25.754503
  7525.368  7525.350  0.500  1.831381  146.810882  161.246476  25.830423
  7528.652  7528.640  0.500  1.828887  146.732863  161.291501  25.902149
  7531.963  7531.950  0.500  1.826691  146.660692  161.353861  25.969128
  7535.284  7535.270  0.500  1.824678  146.552005  161.343443  26.019779
  7538.629  7538.620  0.500  1.822623  146.466784  161.359033  26.075827
  7542.007  7541.990  0.500  1.820837  146.392002  161.405204  26.129930
  7545.379  7545.370  0.500  1.818988  146.312553  161.441757  26.184212
  7548.792  7548.780  0.500  1.817052  146.241798  161.491011  26.242953
  7552.204  7552.200  0.500  1.814871  146.142335  161.504129  26.302381
  7555.660  7555.650  0.500  1.812484  146.030615  161.522676  26.368269
  7559.127  7559.110  0.500  1.809769  145.937108  161.532312  26.441545
  7562.602  7562.590  0.500  1.807109  145.840924  161.543818  26.513866
  7566.100  7566.090  0.500  1.804512  145.741897  161.587228  26.589945
  7569.623  7569.610  0.500  1.802034  145.632019  161.580838  26.654855
  7573.167  7573.150  0.500  1.799474  145.564995  161.611513  26.728246
  7576.716  7576.700  0.500  1.797264  145.430904  161.598267  26.785210
  7580.299  7580.280  0.500  1.795061  145.325624  161.616760  26.847350
  7583.897  7583.880  0.500  1.792793  145.208510  161.574083  26.901189
  7587.508  7587.490  0.500  1.790509  145.095230  161.587161  26.964904
  7591.133  7591.120  0.500  1.788085  144.949549  161.553636  27.024716
  7594.804  7594.780  0.500  1.785647  144.818405  161.537324  27.087950
  7598.470  7598.450  0.500  1.783286  144.668295  161.492208  27.144404
  7602.163  7602.140  0.500  1.781028  142.267903  158.965733  26.780156
  7605.871  7605.850  0.500  1.778853  143.985218  161.040846  27.188788
  7609.596  7609.580  0.500  1.776692  143.740394  160.910751  27.225604
  7613.334  7613.320  0.500  1.774440  143.656356  160.919522  27.288474
  7617.110  7617.090  0.500  1.772311  143.646788  161.077992  27.373567
  7620.898  7620.880  0.500  1.769921  143.690545  161.299889  27.476860
  7624.700  7624.680  0.500  1.767474  143.749275  161.547157  27.586392
  7628.526  7628.510  0.500  1.764936  143.768667  161.674514  27.678299
  7632.378  7632.350  0.500  1.762258  143.662412  161.617913  27.742831
  7636.229  7636.210  0.500  1.759665  143.535815  161.639931  27.818650
  7640.113  7640.090  0.500  1.756896  143.433354  161.612413  27.891025
  7644.002  7643.990  0.500  1.754232  143.305020  161.602832  27.963777
  7647.925  7647.910  0.500  1.751489  143.179085  161.596505  28.039474
  7651.865  7651.850  0.500  1.748828  143.051271  161.603105  28.115352
  7655.824  7655.810  0.500  1.746173  142.940811  161.656196  28.199356
  7659.797  7659.780  0.500  1.743458  142.819403  161.656140  28.275993
  7663.802  7663.780  0.500  1.740696  142.696591  161.616716  28.347307
  7667.813  7667.790  0.500  1.737944  142.548595  161.624185  28.426724
  7671.844  7671.830  0.500  1.735172  142.452422  161.619077  28.504742
  7675.898  7675.880  0.500  1.732685  142.300401  161.566968  28.566501
  7679.965  7679.950  0.500  1.730246  142.150543  161.537438  28.631018
  7684.057  7684.040  0.500  1.727989  141.938529  161.465477  28.682948
  7688.177  7688.150  0.500  1.725662  138.596723  157.810155  28.098915
  7692.298  7692.280  0.500  1.723550  142.282501  162.156952  28.933934
  7696.447  7696.430  0.500  1.721217  142.140077  162.105920  28.992389
  7700.598  7700.590  0.500  1.718585  141.986069  162.072017  29.062700
  7704.786  7704.780  0.500  1.715889  141.734867  161.927069  29.115095
  7708.992  7708.980  0.500  1.713041  141.825974  162.170515  29.242039
  7713.221  7713.210  0.500  1.710268  141.600755  162.134527  29.316724
  7717.464  7717.450  0.500  1.707487  141.390996  161.988347  29.371868
  7721.720  7721.710  0.500  1.704671  138.271953  158.533227  28.826445
  7726.006  7725.990  0.500  1.702028  141.181529  162.042760  29.542567
  7730.300  7730.290  0.500  1.699240  141.035790  162.048808  29.626162
  7734.619  7734.610  0.500  1.696468  140.829452  161.913951  29.683668
  7738.963  7738.950  0.500  1.693543  140.533286  161.705119  29.732235
  7743.325  7743.310  0.500  1.690690  140.666833  162.032759  29.877599
  7747.698  7747.690  0.500  1.687777  140.448955  161.975643  29.954171
  7752.096  7752.080  0.500  1.684944  140.272874  161.909341  30.026865
  7756.509  7756.500  0.500  1.682283  140.119992  161.872423  30.100017
  7760.944  7760.930  0.500  1.679706  139.975215  161.802509  30.164633
  7765.388  7765.380  0.500  1.677186  139.805720  161.739612  30.228989
  7769.864  7769.850  0.500  1.674830  139.671169  161.768650  30.305737
  7774.347  7774.340  0.500  1.672575  139.492440  161.692598  30.359881
  7778.862  7778.850  0.500  1.670099  139.310777  161.617419  30.420993
  7783.390  7783.380  0.500  1.667388  139.160346  161.583218  30.497118
  7787.939  7787.930  0.500  1.664553  139.002442  161.572436  30.581659
  7792.511  7792.500  0.500  1.661584  138.824691  161.509689  30.660681
  7797.092  7797.080  0.500  1.658476  138.688594  161.480606  30.750582
  7801.694  7801.690  0.500  1.655317  138.525816  161.458888  30.843737
  7806.317  7806.310  0.500  1.652041  138.361491  161.429141  30.939233
  7810.969  7810.960  0.500  1.648913  138.179847  161.383490  31.027388
  7815.630  7815.620  0.500  1.645921  138.024352  161.363909  31.116595
  7820.309  7820.300  0.500  1.643001  137.871191  161.336726  31.202333
  7825.005  7825.000  0.500  1.640112  137.664757  161.216755  31.269335
  7829.727  7829.720  0.500  1.637271  137.543613  161.237313  31.362298
  7834.469  7834.460  0.500  1.634470  137.363525  161.128059  31.428964
  7839.224  7839.210  0.500  1.631784  137.019234  160.919064  31.472593
  7843.998  7843.990  0.500  1.629307  137.027258  161.095193  31.585180
  7848.802  7848.790  0.500  1.626700  136.767475  160.956964  31.640462
  7853.610  7853.600  0.500  1.623971  136.594824  160.858214  31.707462
  7858.437  7858.430  0.500  1.621293  136.445391  160.818694  31.784680
  7863.299  7863.290  0.500  1.618561  136.289197  160.803048  31.868540
  7868.164  7868.160  0.500  1.615834  136.122486  160.762166  31.947441
  7873.057  7873.050  0.500  1.612847  135.973753  160.753236  32.041242
  7877.972  7877.960  0.500  1.609882  135.752398  160.660370  32.117792
  7882.904  7882.890  0.500  1.606741  135.583005  160.611245  32.209007
  7887.846  7887.830  0.500  1.603508  135.385200  160.539357  32.298843
  7892.817  7892.800  0.500  1.600268  135.212106  160.488173  32.393328
  7897.811  7897.790  0.500  1.597213  135.024844  160.412222  32.477059
  7902.801  7902.790  0.500  1.594352  134.796500  160.305410  32.548423
  7907.832  7907.820  0.500  1.591663  134.628799  160.269887  32.628828
