# XDI/1.0 BlueSky/1.10.0 BMM/2023-1.0-py310-tiled
# Beamline.name: BMM (06BM) -- Beamline for Materials Measurement (NIST)
# Beamline.xray_source: NSLS-II three-pole wiggler
# Beamline.collimation: paraboloid mirror, 5 nm Rh on 30 nm Pt
# Beamline.focusing: not in use
# Beamline.harmonic_rejection: flat mirror, Si stripe, pitch = 7.0 mrad relative to beam
# Beamline.software: Bluesky 1.10.0, Ophyd 1.7.0, DataBroker 2.0.0b13, Python 3.10.8, 2023-1.0-py310-tiled
# Detector.I0: 10 cm N2
# Detector.I1: 25 cm N2
# Detector.I2: 25 cm N2
# Element.symbol: Eu
# Element.edge: L3
# Element.reference: Eu
# Element.reference_material: Eu2O3
# Facility.name: NSLS-II
# Facility.energy: 3.0
# Facility.current: 400.3
# Facility.mode: top-off
# Facility.GUP: 123456
# Facility.SAF: 301027
# Facility.cycle: 2023-2
# Mono.name: Si(111)
# Mono.d_spacing: 3.1351860
# Mono.encoder_resolution: 0.0000050 deg/ct
# Mono.angle_offset: 16.0754326 deg
# Mono.scan_mode: pseudo channel cut
# Mono.scan_type: step
# Mono.direction: forward in energy
# Sample.name: Eu2TiO5
# Sample.prep: Powder in PEG pellet
# Sample.x: 149.848 mm
# Sample.y: 114.690 mm
# Sample.SDD_position: 205.000 mm
# Scan.experimenters: Bruce Ravel
# Scan.edge_energy: 6976.9
# Scan.start_time: 2023-05-08T17:54:46
# Scan.end_time: 2023-05-08T18:01:04
# Scan.transient_id: 75466
# Scan.uid: c3750c6d-ddaa-49b8-908a-367c6a850081
# Scan.plot_hint: ln(I0/It)  --  ln($5/$6)
# Column.1: energy eV
# Column.2: requested_energy eV
# Column.3: measurement_time seconds
# Column.4: xmu 
# Column.5: I0 nA
# Column.6: It nA
# Column.7: Ir nA
# ///////////
# sample courtesy Martin Stennett, University of Sheffield
# -----------
# energy  requested_energy  measurement_time  xmu  I0  It  Ir
  6776.910  6776.900  0.500  1.415636  151.750371  36.840624  9.103873
  6786.915  6786.900  0.500  1.407483  151.902943  37.179555  9.245036
  6796.915  6796.900  0.500  1.398704  150.972251  37.277598  9.325142
  6806.906  6806.900  0.500  1.390597  151.838643  37.796681  9.513384
  6816.903  6816.900  0.500  1.381985  151.885221  38.135295  9.656251
  6826.907  6826.900  0.500  1.373588  151.772276  38.428247  9.788946
  6836.920  6836.900  0.500  1.364527  152.021061  38.841625  9.954219
  6846.918  6846.900  0.500  1.356301  151.692353  39.077757  10.075532
  6856.914  6856.900  0.500  1.347738  151.931669  39.476000  10.238255
  6866.912  6866.900  0.500  1.339656  152.112758  39.843777  10.393262
  6876.912  6876.900  0.500  1.331356  152.301383  40.225684  10.554351
  6886.910  6886.900  0.500  1.323785  152.398417  40.557207  10.703014
  6896.911  6896.900  0.500  1.315403  152.500269  40.925891  10.862905
  6906.916  6906.900  0.500  1.307343  152.539087  41.267610  11.013341
  6916.909  6916.900  0.500  1.299299  152.451615  41.577028  11.157684
  6926.913  6926.900  0.500  1.291805  152.382094  41.870705  11.295351
  6936.883  6936.900  0.500  1.283938  152.400241  42.206430  11.441316
  6947.906  6946.900  0.500  1.276298  152.431752  42.538904  11.580436
  6948.978  6948.900  0.500  1.275692  152.438936  42.566703  11.590336
  6950.885  6950.900  0.500  1.274196  152.410992  42.622590  11.611432
  6952.883  6952.900  0.500  1.272841  152.425721  42.684507  11.631519
  6955.210  6954.900  0.500  1.271930  152.415353  42.720511  11.643764
  6956.895  6956.900  0.500  1.271109  152.403790  42.752379  11.651237
  6958.900  6958.900  0.500  1.270038  152.403693  42.798171  11.658138
  6960.892  6960.900  0.500  1.269161  152.420356  42.840394  11.659404
  6962.898  6962.900  0.500  1.268605  152.429741  42.866845  11.649792
  6964.893  6964.900  0.500  1.268613  152.427607  42.865912  11.618604
  6966.899  6966.900  0.500  1.269440  152.440313  42.834061  11.557520
  6967.386  6967.400  0.500  1.269954  152.434129  42.810279  11.532604
  6967.883  6967.900  0.500  1.270336  152.433054  42.793635  11.504248
  6968.383  6968.400  0.500  1.270775  152.435011  42.775414  11.477279
  6968.884  6968.900  0.500  1.271603  152.431102  42.738914  11.435861
  6969.384  6969.400  0.500  1.272405  152.434832  42.705687  11.392789
  6969.885  6969.900  0.500  1.273218  152.424458  42.668100  11.348169
  6970.385  6970.400  0.500  1.274308  152.419897  42.620317  11.302129
  6970.889  6970.900  0.500  1.275095  152.424037  42.587953  11.260349
  6971.388  6971.400  0.500  1.276202  152.411387  42.537280  11.207809
  6971.886  6971.900  0.500  1.277471  152.416395  42.484769  11.146835
  6972.390  6972.400  0.500  1.279202  152.405839  42.408326  11.068077
  6972.884  6972.900  0.500  1.281266  152.402708  42.320041  10.973550
  6973.386  6973.400  0.500  1.283897  152.398835  42.207751  10.851092
  6973.890  6973.900  0.500  1.287098  152.390585  42.070587  10.706699
  6974.391  6974.400  0.500  1.290388  152.394945  41.933583  10.555963
  6974.893  6974.900  0.500  1.294007  152.392740  41.781533  10.388387
  6975.391  6975.400  0.500  1.298297  152.395364  41.603385  10.196058
  6975.888  6975.900  0.500  1.303233  152.394511  41.398274  9.971400
  6976.392  6976.400  0.500  1.309061  152.381450  41.154218  9.706563
  6976.889  6976.900  0.500  1.315472  152.374031  40.889221  9.402989
  6977.396  6977.400  0.500  1.323332  152.369754  40.567955  9.023811
  6977.892  6977.900  0.500  1.332183  152.358222  40.207398  8.576359
  6978.393  6978.400  0.500  1.342080  152.347938  39.808757  8.070634
  6978.894  6978.900  0.500  1.352649  152.352417  39.391401  7.500773
  6979.395  6979.400  0.500  1.363324  152.352225  38.973073  6.888325
  6979.892  6979.900  0.500  1.373488  152.359062  38.580711  6.285570
  6980.393  6980.400  0.500  1.382153  152.348231  38.245117  5.749590
  6980.892  6980.900  0.500  1.389006  152.345808  37.983305  5.319270
  6981.393  6981.400  0.500  1.393916  152.343768  37.796762  4.972537
  6981.901  6981.900  0.500  1.397406  152.340064  37.664184  4.710726
  6982.396  6982.400  0.500  1.399685  152.337392  37.577767  4.545509
  6982.898  6982.900  0.500  1.400578  152.340237  37.544929  4.477865
  6983.399  6983.400  0.500  1.400197  152.342104  37.559700  4.511464
  6983.899  6983.900  0.500  1.398782  152.340146  37.612406  4.646058
  6984.401  6984.400  0.500  1.395954  152.339078  37.718651  4.874184
  6984.894  6984.900  0.500  1.391704  152.338915  37.879251  5.157083
  6985.396  6985.400  0.500  1.386125  152.336066  38.090476  5.496640
  6985.900  6985.900  0.500  1.379510  152.334963  38.342987  5.868488
  6986.400  6986.400  0.500  1.372709  152.327511  38.602773  6.234147
  6986.900  6986.900  0.500  1.365882  152.311601  38.863130  6.579082
  6987.400  6987.400  0.500  1.359384  152.320028  39.118663  6.901120
  6987.898  6987.900  0.500  1.353465  152.329324  39.353287  7.186189
  6988.399  6988.400  0.500  1.348084  152.326466  39.564869  7.437511
  6988.897  6988.900  0.500  1.343517  152.316994  39.743524  7.642191
  6989.391  6989.400  0.500  1.339707  152.320887  39.896258  7.815031
  6989.900  6989.900  0.500  1.336189  152.319861  40.036580  7.961362
  6990.396  6990.400  0.500  1.333099  152.316760  40.159689  8.082101
  6990.899  6990.900  0.500  1.330512  152.315504  40.263382  8.178125
  6991.398  6991.400  0.500  1.328359  152.304116  40.347123  8.255379
  6991.894  6991.900  0.500  1.326468  152.305706  40.423942  8.321842
  6992.397  6992.400  0.500  1.325342  152.304287  40.469098  8.374884
  6992.896  6992.900  0.500  1.323967  152.297918  40.523094  8.422310
  6993.397  6993.400  0.500  1.322877  152.288082  40.564642  8.461783
  6993.902  6993.900  0.500  1.322131  152.280153  40.592826  8.494112
  6994.401  6994.400  0.500  1.321282  152.270953  40.624848  8.521841
  6994.905  6994.900  0.500  1.320855  152.274620  40.643159  8.540900
  6995.404  6995.400  0.500  1.320356  152.272527  40.662899  8.556475
  6995.893  6995.900  0.500  1.320151  152.268920  40.670256  8.565744
  6996.398  6996.400  0.500  1.319881  152.257313  40.678132  8.570556
  6996.892  6996.900  0.500  1.319749  152.257388  40.683552  8.573916
  6997.399  6997.400  0.500  1.320175  152.259272  40.666704  8.572293
  6997.897  6997.900  0.500  1.320078  152.247418  40.667493  8.574069
  6998.397  6998.400  0.500  1.320135  152.248006  40.665339  8.576275
  6998.900  6998.900  0.500  1.320183  152.244762  40.662521  8.580295
  6999.396  6999.400  0.500  1.320099  152.232244  40.662583  8.584489
  6999.892  6999.900  0.500  1.320057  152.239021  40.666082  8.591683
  7000.398  7000.400  0.500  1.319836  152.239842  40.675299  8.602926
  7000.902  7000.900  0.500  1.319638  152.242735  40.684132  8.611890
  7001.402  7001.400  0.500  1.319209  152.232928  40.698984  8.622641
  7001.905  7001.900  0.500  1.318532  152.234295  40.726917  8.636126
  7002.893  7002.890  0.500  1.317272  152.230090  40.777102  8.658183
  7003.896  7003.890  0.500  1.315980  152.215691  40.825979  8.672024
  7004.924  7004.910  0.500  1.314706  152.223180  40.880015  8.674964
  7005.967  7005.960  0.500  1.313973  152.226341  40.910863  8.656299
  7007.027  7007.020  0.500  1.313907  152.215841  40.910734  8.611951
  7008.111  7008.100  0.500  1.314274  152.189945  40.888752  8.547900
  7009.217  7009.200  0.500  1.314997  152.189228  40.859016  8.470047
  7010.324  7010.320  0.500  1.316300  152.183307  40.804230  8.384504
  7011.469  7011.460  0.500  1.317949  152.182630  40.736832  8.296284
  7012.616  7012.610  0.500  1.319414  152.165913  40.672724  8.211901
  7013.801  7013.790  0.500  1.320678  152.153581  40.618044  8.136475
  7014.988  7014.980  0.500  1.321855  152.155788  40.570847  8.075729
  7016.208  7016.200  0.500  1.322496  152.150308  40.543387  8.033206
  7017.440  7017.430  0.500  1.322648  152.143327  40.535394  8.012837
  7018.685  7018.680  0.500  1.321775  152.143520  40.570845  8.024912
  7019.962  7019.950  0.500  1.319879  152.154066  40.650640  8.064804
  7021.243  7021.240  0.500  1.317210  152.130185  40.752896  8.125765
  7022.559  7022.550  0.500  1.314237  152.124254  40.872648  8.200875
  7023.894  7023.880  0.500  1.311477  152.110527  40.981881  8.282678
  7025.233  7025.230  0.500  1.308731  152.110578  41.094585  8.366667
  7026.609  7026.600  0.500  1.306334  152.103610  41.191316  8.448069
  7027.989  7027.980  0.500  1.304208  152.094407  41.276488  8.521253
  7029.403  7029.390  0.500  1.302621  152.092157  41.341460  8.583663
  7030.821  7030.810  0.500  1.301139  152.092084  41.402740  8.637949
  7032.253  7032.250  0.500  1.299643  152.073089  41.459536  8.685064
  7033.715  7033.710  0.500  1.298307  152.057447  41.510718  8.726386
  7035.199  7035.190  0.500  1.297107  152.054598  41.559780  8.761233
  7036.698  7036.690  0.500  1.295854  152.040426  41.608012  8.790225
  7038.219  7038.210  0.500  1.294683  152.041952  41.657155  8.817985
  7039.751  7039.750  0.500  1.293761  152.028993  41.692024  8.837820
  7041.324  7041.310  0.500  1.292716  152.029490  41.735751  8.854894
  7042.893  7042.880  0.500  1.291656  152.015792  41.776261  8.870668
  7044.488  7044.480  0.500  1.290502  152.001691  41.820631  8.879595
  7046.107  7046.090  0.500  1.289364  151.987557  41.864334  8.887552
  7047.737  7047.730  0.500  1.288293  151.970328  41.904469  8.889622
  7049.392  7049.380  0.500  1.287594  151.944875  41.926730  8.885037
  7051.055  7051.050  0.500  1.286661  151.949062  41.967015  8.881796
  7052.753  7052.740  0.500  1.285847  151.942103  41.999278  8.874157
  7054.456  7054.450  0.500  1.285022  151.932634  42.031329  8.866595
  7056.194  7056.180  0.500  1.283991  151.930758  42.074149  8.859606
  7057.943  7057.930  0.500  1.283678  151.920951  42.084616  8.848948
  7059.708  7059.690  0.500  1.283123  151.929647  42.110374  8.844320
  7061.490  7061.480  0.500  1.282169  151.938611  42.153054  8.845470
  7063.291  7063.280  0.500  1.281342  151.208646  41.985260  8.806991
  7065.122  7065.110  0.500  1.280409  151.800129  42.188857  8.851983
  7066.965  7066.950  0.500  1.279215  151.825330  42.246259  8.869705
  7068.827  7068.810  0.500  1.277897  151.794031  42.293233  8.888245
  7070.708  7070.690  0.500  1.276452  151.456626  42.260286  8.892662
  7072.602  7072.590  0.500  1.274846  151.762012  42.413557  8.940637
  7074.521  7074.510  0.500  1.272969  151.584519  42.443520  8.961898
  7076.467  7076.450  0.500  1.271272  151.589364  42.516968  8.993411
  7078.428  7078.410  0.500  1.269735  151.693818  42.611729  9.028260
  7080.390  7080.380  0.500  1.268326  151.709483  42.676196  9.057176
  7082.394  7082.380  0.500  1.266543  151.351622  42.651518  9.065504
  7084.400  7084.390  0.500  1.265203  151.521978  42.756780  9.102211
  7086.438  7086.420  0.500  1.263803  151.604292  42.839946  9.135198
  7088.490  7088.480  0.500  1.262223  151.603269  42.907368  9.163152
  7090.567  7090.550  0.500  1.260394  151.585094  42.980789  9.195200
  7092.652  7092.640  0.500  1.258978  151.557887  43.033955  9.227103
  7094.767  7094.750  0.500  1.256809  151.532163  43.120091  9.264189
  7096.893  7096.880  0.500  1.255052  151.524704  43.193803  9.303739
  7099.029  7099.020  0.500  1.253320  151.522566  43.268040  9.342386
  7101.206  7101.190  0.500  1.251417  151.503994  43.345148  9.383862
  7103.391  7103.380  0.500  1.249672  151.480493  43.414138  9.423530
  7105.602  7105.580  0.500  1.247825  151.456354  43.487439  9.462826
  7107.800  7107.800  0.500  1.246425  151.419663  43.537830  9.495475
  7110.058  7110.050  0.500  1.244814  151.359418  43.590686  9.519969
  7112.324  7112.310  0.500  1.243767  151.189396  43.587309  9.526758
  7114.594  7114.590  0.500  1.242278  151.084005  43.621853  9.533794
  7116.904  7116.890  0.500  1.241053  151.037748  43.661921  9.537257
  7119.217  7119.210  0.500  1.239961  150.944415  43.682657  9.536893
  7121.560  7121.550  0.500  1.238830  150.842112  43.702449  9.539567
  7123.914  7123.900  0.500  1.237600  150.760683  43.732596  9.539096
  7126.286  7126.280  0.500  1.236069  150.635968  43.763351  9.540979
  7128.683  7128.670  0.500  1.234895  150.498539  43.774790  9.541991
  7131.102  7131.090  0.500  1.233404  150.305260  43.783799  9.543804
  7133.526  7133.520  0.500  1.231620  150.230776  43.840270  9.559296
  7135.985  7135.970  0.500  1.229654  150.220505  43.923525  9.585718
  7138.459  7138.450  0.500  1.228005  150.206339  43.991872  9.617141
  7140.951  7140.940  0.500  1.226237  150.208909  44.070469  9.654020
  7143.463  7143.450  0.500  1.224357  150.217453  44.155924  9.695708
  7145.983  7145.970  0.500  1.222367  150.219201  44.244378  9.743360
  7148.533  7148.520  0.500  1.220457  150.225327  44.330784  9.789914
  7151.102  7151.090  0.500  1.218683  150.212686  44.405770  9.830713
  7153.684  7153.670  0.500  1.216832  150.196026  44.483077  9.867783
  7156.294  7156.280  0.500  1.215088  150.169868  44.552994  9.899475
  7158.906  7158.900  0.500  1.213467  150.156092  44.621184  9.928557
  7161.561  7161.550  0.500  1.211777  150.111517  44.683358  9.957248
  7164.223  7164.210  0.500  1.209918  150.047794  44.747514  9.980990
  7166.902  7166.890  0.500  1.207852  149.972644  44.817592  10.007341
  7169.598  7169.590  0.500  1.206028  149.913771  44.881789  10.033125
  7172.317  7172.310  0.500  1.204213  149.863710  44.948317  10.060315
  7175.061  7175.050  0.500  1.202026  149.811079  45.030892  10.091485
  7177.812  7177.800  0.500  1.199858  149.778401  45.118806  10.125226
  7180.591  7180.580  0.500  1.197792  149.730465  45.197628  10.157344
  7183.377  7183.370  0.500  1.195920  149.706415  45.275059  10.194481
  7186.200  7186.190  0.500  1.194026  149.669254  45.349641  10.230209
  7189.035  7189.020  0.500  1.192044  149.656700  45.435795  10.272127
  7191.882  7191.870  0.500  1.190042  147.364745  44.829595  10.157229
  7194.759  7194.750  0.500  1.188277  149.403086  45.529968  10.336703
  7197.653  7197.640  0.500  1.186561  149.416694  45.612349  10.379070
  7200.565  7200.550  0.500  1.184695  149.359244  45.679950  10.411971
  7203.486  7203.470  0.500  1.183079  149.317922  45.741168  10.442233
  7206.434  7206.420  0.500  1.181337  149.245589  45.798724  10.469040
  7209.402  7209.390  0.500  1.179276  149.162932  45.867778  10.495673
  7212.379  7212.370  0.500  1.177436  149.097392  45.932077  10.519838
  7215.391  7215.380  0.500  1.175461  149.023946  46.000214  10.544375
  7218.416  7218.400  0.500  1.173402  148.956636  46.074211  10.571945
  7221.465  7221.450  0.500  1.171337  148.887588  46.148051  10.599165
  7224.525  7224.510  0.500  1.169061  148.808987  46.228766  10.630223
  7227.600  7227.590  0.500  1.166920  146.753777  45.688021  10.519928
  7230.699  7230.690  0.500  1.164895  148.836901  46.430480  10.708373
  7233.825  7233.810  0.500  1.162991  148.755218  46.493438  10.742331
  7236.961  7236.950  0.500  1.160773  148.692670  46.577082  10.782572
  7240.116  7240.100  0.500  1.158771  148.633630  46.651889  10.820958
  7243.295  7243.280  0.500  1.156854  148.564539  46.719692  10.860230
  7246.487  7246.470  0.500  1.154558  148.317157  46.749085  10.890024
  7249.699  7249.690  0.500  1.152463  148.403560  46.874446  10.941718
  7252.929  7252.920  0.500  1.150359  148.172930  46.900155  10.970702
  7256.181  7256.170  0.500  1.148500  148.454048  47.076577  11.033697
  7259.458  7259.450  0.500  1.146200  148.212350  47.108161  11.063242
  7262.754  7262.740  0.500  1.144263  146.657915  46.704480  10.988883
  7266.066  7266.050  0.500  1.141982  147.718598  47.149657  11.112849
  7269.384  7269.370  0.500  1.139870  148.607642  47.533708  11.222223
  7272.732  7272.720  0.500  1.137516  148.393494  47.577094  11.250473
  7276.105  7276.090  0.500  1.135386  148.631275  47.754962  11.307763
  7279.484  7279.470  0.500  1.133050  148.530516  47.834189  11.344029
  7282.889  7282.880  0.500  1.130785  148.430386  47.910330  11.381389
  7286.308  7286.300  0.500  1.128365  148.204027  47.953189  11.410427
  7289.761  7289.750  0.500  1.126185  148.263491  48.077084  11.462346
  7293.221  7293.210  0.500  1.123884  148.216141  48.172445  11.509197
  7296.695  7296.690  0.500  1.122028  148.142033  48.237810  11.550672
  7300.198  7300.190  0.500  1.119622  147.863157  48.262983  11.580790
  7303.716  7303.710  0.500  1.117236  148.146577  48.471009  11.655939
  7307.258  7307.250  0.500  1.115030  148.030893  48.540117  11.693086
  7310.808  7310.800  0.500  1.112885  147.968374  48.623810  11.737388
  7314.387  7314.380  0.500  1.110621  147.875487  48.703457  11.779212
  7317.992  7317.980  0.500  1.109078  147.804773  48.755301  11.812985
  7321.600  7321.590  0.500  1.107009  147.730080  48.831617  11.853410
  7325.233  7325.220  0.500  1.104717  147.637159  48.912895  11.892136
  7328.891  7328.880  0.500  1.102571  147.553940  48.990332  11.933632
  7332.568  7332.550  0.500  1.100205  147.494574  49.086633  11.975332
  7336.251  7336.240  0.500  1.097592  147.435288  49.195262  12.022976
  7339.965  7339.950  0.500  1.095014  146.425585  48.984491  11.992734
  7343.688  7343.680  0.500  1.092514  147.180510  49.360289  12.105598
  7347.424  7347.420  0.500  1.089982  147.086260  49.453724  12.150661
  7351.199  7351.190  0.500  1.087733  147.048681  49.552425  12.199325
  7354.986  7354.980  0.500  1.085279  146.981497  49.651465  12.247959
  7358.789  7358.780  0.500  1.082995  146.906990  49.739787  12.296686
  7362.620  7362.610  0.500  1.080574  146.831789  49.834810  12.345798
  7366.461  7366.450  0.500  1.078182  146.716363  49.914877  12.392810
  7370.325  7370.310  0.500  1.075594  146.650514  50.021766  12.447120
  7374.201  7374.190  0.500  1.073321  146.568201  50.107481  12.495912
  7378.106  7378.090  0.500  1.071014  146.471012  50.189869  12.543749
  7382.024  7382.010  0.500  1.068983  146.383837  50.261992  12.590716
  7385.965  7385.950  0.500  1.066574  146.286720  50.349777  12.639553
  7389.927  7389.910  0.500  1.064097  146.196699  50.443611  12.690792
  7393.896  7393.880  0.500  1.061482  146.126403  50.551392  12.745263
  7397.897  7397.880  0.500  1.059207  146.036840  50.635443  12.793656
  7401.919  7401.890  0.500  1.057025  145.935396  50.710824  12.837535
  7405.957  7405.930  0.500  1.054302  145.828260  50.811754  12.889397
  7410.000  7409.980  0.500  1.051773  145.730638  50.906330  12.940291
  7414.078  7414.050  0.500  1.049154  145.623846  51.002391  12.988297
  7418.153  7418.140  0.500  1.046580  145.509894  51.093825  13.036511
  7422.271  7422.250  0.500  1.044138  145.400592  51.180272  13.084441
  7426.381  7426.380  0.500  1.041657  145.290368  51.268531  13.133185
  7430.529  7430.530  0.500  1.039208  145.190068  51.358793  13.185606
  7434.680  7434.690  0.500  1.036695  145.074042  51.446874  13.235768
  7438.885  7438.880  0.500  1.034208  144.951726  51.531485  13.286024
  7443.092  7443.080  0.500  1.031690  144.739472  51.585761  13.330906
  7447.300  7447.310  0.500  1.029266  144.789472  51.728785  13.398096
  7451.540  7451.550  0.500  1.026712  144.492506  51.754701  13.434723
  7455.808  7455.810  0.500  1.024308  144.521038  51.889546  13.500021
  7460.080  7460.090  0.500  1.021921  142.228691  51.188510  13.346962
  7464.379  7464.390  0.500  1.019235  144.249399  52.055402  13.604627
  7468.733  7468.710  0.500  1.016844  144.163494  52.148946  13.660985
  7473.049  7473.050  0.500  1.014350  144.124338  52.264964  13.721229
  7477.420  7477.410  0.500  1.011788  143.958670  52.338796  13.773266
  7481.790  7481.790  0.500  1.009572  143.827608  52.407185  13.821165
  7486.181  7486.180  0.500  1.006943  143.676300  52.489833  13.872522
  7490.585  7490.600  0.500  1.004318  143.514054  52.568376  13.923627
  7495.014  7495.030  0.500  1.001636  143.389180  52.663684  13.975951
  7499.465  7499.480  0.500  0.998884  143.271519  52.765504  14.032983
  7503.930  7503.950  0.500  0.996212  143.115963  52.849240  14.083378
  7508.416  7508.440  0.500  0.993597  142.967346  52.932607  14.136904
  7512.927  7512.950  0.500  0.990984  142.819749  53.016277  14.190807
  7517.462  7517.480  0.500  0.988509  142.679012  53.095286  14.246715
  7522.015  7522.030  0.500  0.985912  142.527703  53.176894  14.303685
  7526.584  7526.600  0.500  0.983298  142.383251  53.262071  14.360959
  7531.163  7531.180  0.500  0.980614  142.228015  53.346996  14.419839
  7535.808  7535.790  0.500  0.977972  142.067572  53.427788  14.479854
  7540.404  7540.410  0.500  0.975435  141.918715  53.507354  14.538534
  7545.044  7545.060  0.500  0.972731  141.740139  53.584743  14.595626
  7549.705  7549.720  0.500  0.970160  141.588384  53.665173  14.652299
  7554.379  7554.400  0.500  0.967378  141.442787  53.759324  14.713031
  7559.078  7559.100  0.500  0.964653  141.275915  53.842431  14.770882
  7563.799  7563.820  0.500  0.962012  141.105440  53.919693  14.825468
  7568.532  7568.560  0.500  0.959449  140.959189  54.002010  14.881914
  7573.289  7573.310  0.500  0.956753  140.804066  54.088212  14.936394
  7578.120  7578.090  0.500  0.954068  140.633335  54.167861  14.991499
  7582.873  7582.890  0.500  0.951360  140.458046  54.247044  15.043981
  7587.722  7587.700  0.500  0.948674  140.239960  54.308533  15.094250
  7592.526  7592.530  0.500  0.946162  140.037243  54.366415  15.140130
