# XDI/1.0 BlueSky/1.10.0 BMM/2023-1.0-py310-tiled
# Beamline.name: BMM (06BM) -- Beamline for Materials Measurement (NIST)
# Beamline.xray_source: NSLS-II three-pole wiggler
# Beamline.collimation: paraboloid mirror, 5 nm Rh on 30 nm Pt
# Beamline.focusing: not in use
# Beamline.harmonic_rejection: flat mirror, Si stripe, pitch = 7.0 mrad relative to beam
# Beamline.software: Bluesky 1.10.0, Ophyd 1.7.0, DataBroker 2.0.0b13, Python 3.10.8, 2023-1.0-py310-tiled
# Detector.I0: 10 cm N2
# Detector.I1: 25 cm N2
# Detector.I2: 25 cm N2
# Element.symbol: Eu
# Element.edge: L3
# Element.reference: Eu
# Element.reference_material: Eu2O3
# Facility.name: NSLS-II
# Facility.energy: 3.0
# Facility.current: 400.6
# Facility.mode: top-off
# Facility.GUP: 123456
# Facility.SAF: 301027
# Facility.cycle: 2023-2
# Mono.name: Si(111)
# Mono.d_spacing: 3.1351860
# Mono.encoder_resolution: 0.0000050 deg/ct
# Mono.angle_offset: 16.0754326 deg
# Mono.scan_mode: pseudo channel cut
# Mono.scan_type: step
# Mono.direction: forward in energy
# Sample.name: cubic Eu2O3
# Sample.prep: Powder in PEG pellet
# Sample.x: 123.848 mm
# Sample.y: 114.690 mm
# Sample.SDD_position: 205.000 mm
# Scan.experimenters: Bruce Ravel
# Scan.edge_energy: 6976.9
# Scan.start_time: 2023-05-08T17:47:38
# Scan.end_time: 2023-05-08T17:53:56
# Scan.transient_id: 75461
# Scan.uid: 5d66c1c3-85af-421d-b804-066f6f0d0a01
# Scan.plot_hint: ln(I0/It)  --  ln($5/$6)
# Column.1: energy eV
# Column.2: requested_energy eV
# Column.3: measurement_time seconds
# Column.4: xmu 
# Column.5: I0 nA
# Column.6: It nA
# Column.7: Ir nA
# ///////////
# sample courtesy Martin Stennett, University of Sheffield
# -----------
# energy  requested_energy  measurement_time  xmu  I0  It  Ir
  6776.906  6776.900  0.500  1.808529  151.798960  24.879090  6.085219
  6786.912  6786.900  0.500  1.797661  151.961369  25.177857  6.196481
  6796.911  6796.900  0.500  1.787292  151.043679  25.286660  6.262593
  6806.922  6806.900  0.500  1.776723  151.886149  25.697861  6.403864
  6816.891  6816.900  0.500  1.766221  151.923742  25.975602  6.512820
  6826.901  6826.900  0.500  1.755709  151.816399  26.231540  6.617222
  6836.900  6836.900  0.500  1.745575  152.098623  26.548002  6.737985
  6846.912  6846.900  0.500  1.735112  151.754833  26.766590  6.834856
  6856.916  6856.900  0.500  1.724884  152.004687  27.086285  6.958370
  6866.910  6866.900  0.500  1.715153  152.190666  27.384603  7.076545
  6876.914  6876.900  0.500  1.705127  152.370336  27.693209  7.199274
  6886.918  6886.900  0.500  1.694912  152.470479  27.995919  7.320541
  6896.909  6896.900  0.500  1.684972  152.574854  28.294959  7.442545
  6906.910  6906.900  0.500  1.675434  152.607363  28.572199  7.558143
  6916.906  6916.900  0.500  1.666269  152.514996  28.817812  7.665808
  6926.905  6926.900  0.500  1.657801  152.463280  29.053026  7.771663
  6936.879  6936.900  0.500  1.650535  152.510188  29.273894  7.871076
  6946.883  6946.900  0.500  1.646463  152.509404  29.393208  7.935582
  6948.882  6948.900  0.500  1.646301  152.490280  29.394273  7.940793
  6950.883  6950.900  0.500  1.646787  152.484664  29.378921  7.940074
  6952.881  6952.900  0.500  1.647345  152.499723  29.365412  7.940278
  6954.888  6954.900  0.500  1.648392  152.495000  29.333777  7.934086
  6956.886  6956.900  0.500  1.650947  152.484567  29.256935  7.912328
  6958.890  6958.900  0.500  1.654215  152.507173  29.165783  7.884408
  6960.890  6960.900  0.500  1.658385  152.510951  29.045134  7.846447
  6962.896  6962.900  0.500  1.665459  152.510449  28.840316  7.779165
  6964.893  6964.900  0.500  1.675697  152.510351  28.546532  7.681363
  6966.893  6966.900  0.500  1.692555  152.516192  28.070409  7.520258
  6967.386  6967.400  0.500  1.698640  152.523043  27.901360  7.463238
  6967.881  6967.900  0.500  1.705225  152.508090  27.715515  7.399563
  6968.381  6968.400  0.500  1.712609  152.500215  27.510191  7.328469
  6968.882  6968.900  0.500  1.721780  152.495521  27.258222  7.243281
  6969.384  6969.400  0.500  1.732004  152.496679  26.981161  7.148723
  6969.881  6969.900  0.500  1.742757  152.502160  26.693537  7.051137
  6970.387  6970.400  0.500  1.752902  152.517360  26.426752  6.959751
  6970.885  6970.900  0.500  1.763338  152.509325  26.151013  6.868039
  6971.388  6971.400  0.500  1.775264  152.505747  25.840377  6.763028
  6971.888  6971.900  0.500  1.790039  152.495264  25.459634  6.635080
  6972.384  6972.400  0.500  1.808077  152.473638  25.000969  6.481530
  6972.886  6972.900  0.500  1.830783  152.472415  24.439492  6.295424
  6973.386  6973.400  0.500  1.859112  152.469175  23.756368  6.068679
  6973.886  6973.900  0.500  1.893301  152.474927  22.958745  5.804873
  6974.391  6974.400  0.500  1.930724  152.468375  22.114492  5.530964
  6974.889  6974.900  0.500  1.972415  152.464603  21.210948  5.241519
  6975.393  6975.400  0.500  2.021438  152.465962  20.196380  4.919742
  6975.890  6975.900  0.500  2.080198  152.461309  19.043254  4.558764
  6976.388  6976.400  0.500  2.150134  152.456412  17.756370  4.163618
  6976.889  6976.900  0.500  2.235919  152.440517  16.294958  3.726210
  6977.392  6977.400  0.500  2.345236  152.434603  14.606976  3.232569
  6977.892  6977.900  0.500  2.482630  152.429247  12.731394  2.704347
  6978.399  6978.400  0.500  2.650208  152.415110  10.766078  2.173280
  6978.894  6978.900  0.500  2.847309  152.404720  8.839499  1.680057
  6979.397  6979.400  0.500  3.083273  152.411592  6.981837  1.232189
  6979.890  6979.900  0.500  3.336784  152.404801  5.418162  0.880809
  6980.389  6980.400  0.500  3.577732  152.410543  4.258195  0.637715
  6980.892  6980.900  0.500  3.789783  152.406534  3.444465  0.478068
  6981.393  6981.400  0.500  3.969479  152.401359  2.877836  0.374306
  6981.893  6981.900  0.500  4.111178  152.399791  2.497597  0.308135
  6982.398  6982.400  0.500  4.207636  152.402138  2.267973  0.269731
  6982.894  6982.900  0.500  4.251390  152.403297  2.170897  0.254453
  6983.397  6983.400  0.500  4.237740  152.399583  2.200679  0.259955
  6983.895  6983.900  0.500  4.164088  152.388888  2.368715  0.288320
  6984.390  6984.400  0.500  4.042147  152.390046  2.675927  0.341162
  6984.896  6984.900  0.500  3.889793  152.385457  3.116220  0.420043
  6985.398  6985.400  0.500  3.719299  152.382455  3.695421  0.528225
  6985.898  6985.900  0.500  3.542531  152.385560  4.410035  0.668596
  6986.402  6986.400  0.500  3.375235  152.375120  5.212762  0.834719
  6986.894  6986.900  0.500  3.230323  152.366753  6.025301  1.010144
  6987.398  6987.400  0.500  3.100256  152.370623  6.862415  1.198896
  6987.896  6987.900  0.500  2.988318  152.365820  7.674982  1.387954
  6988.390  6988.400  0.500  2.896550  152.371642  8.412951  1.565125
  6988.895  6988.900  0.500  2.823082  152.372838  9.054381  1.723159
  6989.399  6989.400  0.500  2.762700  152.373959  9.618017  1.865003
  6989.898  6989.900  0.500  2.713906  152.366249  10.098441  1.987661
  6990.404  6990.400  0.500  2.674354  152.358805  10.505350  2.092774
  6990.901  6990.900  0.500  2.644391  152.354073  10.824545  2.175451
  6991.398  6991.400  0.500  2.619900  152.354620  11.092967  2.247015
  6991.896  6991.900  0.500  2.599831  152.342562  11.316944  2.306760
  6992.397  6992.400  0.500  2.582800  152.342279  11.511309  2.358523
  6992.896  6992.900  0.500  2.568760  152.337704  11.673721  2.401962
  6993.401  6993.400  0.500  2.557090  152.330223  11.810161  2.438638
  6993.900  6993.900  0.500  2.547015  152.316824  11.928708  2.470205
  6994.407  6994.400  0.500  2.539032  152.316706  12.024299  2.497539
  6994.905  6994.900  0.500  2.533392  152.307264  12.091568  2.516341
  6995.402  6995.400  0.500  2.529814  152.304016  12.134642  2.528236
  6995.903  6995.900  0.500  2.527520  152.307145  12.162759  2.536558
  6996.394  6996.400  0.500  2.526767  152.309890  12.172148  2.539924
  6996.896  6996.900  0.500  2.526847  152.297671  12.170200  2.539731
  6997.401  6997.400  0.500  2.527522  152.302917  12.162401  2.539098
  6997.899  6997.900  0.500  2.528528  152.300072  12.149944  2.536994
  6998.401  6998.400  0.500  2.529251  152.272130  12.138934  2.535549
  6998.900  6998.900  0.500  2.529693  152.291306  12.135099  2.535887
  6999.400  6999.400  0.500  2.529708  152.276610  12.133742  2.537075
  6999.892  6999.900  0.500  2.528477  152.281194  12.149058  2.542538
  7000.394  7000.400  0.500  2.526781  152.279220  12.169527  2.548834
  7000.900  7000.900  0.500  2.524448  152.269272  12.197154  2.556648
  7001.402  7001.400  0.500  2.521955  152.265773  12.227319  2.565509
  7001.903  7001.900  0.500  2.519030  152.260599  12.262723  2.574890
  7002.889  7002.890  0.500  2.513715  152.536567  12.350412  2.597249
  7003.892  7003.890  0.500  2.510214  152.810614  12.415993  2.612263
  7004.924  7004.910  0.500  2.511250  152.810664  12.403135  2.607392
  7005.965  7005.960  0.500  2.518710  152.802647  12.310313  2.580131
  7007.023  7007.020  0.500  2.533745  152.792824  12.125825  2.527854
  7008.113  7008.100  0.500  2.555424  152.783219  11.865033  2.456493
  7009.209  7009.200  0.500  2.581617  152.773885  11.557583  2.372464
  7010.328  7010.320  0.500  2.609923  152.766286  11.234462  2.286280
  7011.469  7011.460  0.500  2.640080  152.764463  10.900596  2.198020
  7012.622  7012.610  0.500  2.669444  152.766750  10.585323  2.115766
  7013.805  7013.790  0.500  2.698120  152.760932  10.285694  2.039536
  7014.990  7014.980  0.500  2.722950  152.747805  10.032589  1.976044
  7016.214  7016.200  0.500  2.741175  152.757818  9.852047  1.931736
  7017.436  7017.430  0.500  2.751717  152.756700  9.748653  1.907515
  7018.687  7018.680  0.500  2.752337  152.747813  9.742044  1.906894
  7019.960  7019.950  0.500  2.744071  152.727768  9.821623  1.928290
  7021.241  7021.240  0.500  2.728556  152.731590  9.975441  1.968491
  7022.563  7022.550  0.500  2.708728  152.718767  10.174355  2.020064
  7023.889  7023.880  0.500  2.686255  152.703522  10.404549  2.080749
  7025.239  7025.230  0.500  2.663376  152.698699  10.645003  2.144996
  7026.611  7026.600  0.500  2.641707  152.689035  10.877497  2.208540
  7027.985  7027.980  0.500  2.622196  152.681465  11.091260  2.266880
  7029.395  7029.390  0.500  2.605422  152.681809  11.278900  2.318353
  7030.827  7030.810  0.500  2.590990  152.669095  11.441914  2.363332
  7032.261  7032.250  0.500  2.579250  152.649132  11.575509  2.400650
  7033.715  7033.710  0.500  2.569194  152.624555  11.690617  2.433085
  7035.201  7035.190  0.500  2.561262  152.616149  11.783070  2.459649
  7036.700  7036.690  0.500  2.554539  152.605824  11.861755  2.481431
  7038.225  7038.210  0.500  2.549418  152.608281  11.922840  2.499016
  7039.747  7039.750  0.500  2.545359  152.602893  11.970920  2.511743
  7041.322  7041.310  0.500  2.542365  152.593918  12.006100  2.522031
  7042.891  7042.880  0.500  2.540613  152.571305  12.025371  2.527716
  7044.488  7044.480  0.500  2.540238  152.566185  12.029487  2.529328
  7046.099  7046.090  0.500  2.541433  152.552220  12.014017  2.524913
  7047.737  7047.730  0.500  2.544151  152.541672  11.980577  2.516900
  7049.392  7049.380  0.500  2.548776  152.523469  11.923867  2.502002
  7051.061  7051.050  0.500  2.554742  152.512902  11.852129  2.483463
  7052.753  7052.740  0.500  2.561596  152.515726  11.771392  2.462466
  7054.460  7054.450  0.500  2.569091  152.517483  11.683630  2.439966
  7056.194  7056.180  0.500  2.576231  152.508639  11.599832  2.417830
  7057.937  7057.930  0.500  2.582773  152.497851  11.523378  2.399169
  7059.710  7059.690  0.500  2.588682  152.499743  11.455624  2.381972
  7061.490  7061.480  0.500  2.592954  152.501860  11.406952  2.370096
  7063.297  7063.280  0.500  2.595412  151.805169  11.326962  2.352070
  7065.114  7065.110  0.500  2.596382  152.371252  11.358182  2.359250
  7066.969  7066.950  0.500  2.595689  152.394033  11.367756  2.362564
  7068.821  7068.810  0.500  2.593558  152.351017  11.388789  2.368697
  7070.710  7070.690  0.500  2.590320  152.023572  11.401161  2.375190
  7072.598  7072.590  0.500  2.586540  152.322911  11.466878  2.393193
  7074.528  7074.510  0.500  2.582484  152.142426  11.499836  2.404119
  7076.467  7076.450  0.500  2.578813  152.156889  11.543232  2.417302
  7078.428  7078.410  0.500  2.575095  152.255566  11.593745  2.432246
  7080.390  7080.380  0.500  2.571948  152.266952  11.631155  2.443760
  7082.394  7082.380  0.500  2.568538  151.899556  11.642726  2.449242
  7084.402  7084.390  0.500  2.565634  152.078390  11.690327  2.463514
  7086.434  7086.420  0.500  2.562890  152.158422  11.728618  2.475081
  7088.494  7088.480  0.500  2.560072  152.166289  11.762325  2.486929
  7090.567  7090.550  0.500  2.556709  152.143850  11.800215  2.499488
  7092.647  7092.640  0.500  2.551930  152.106715  11.853847  2.516185
  7094.761  7094.750  0.500  2.546315  152.102227  11.920238  2.535628
  7096.900  7096.880  0.500  2.539519  152.085383  12.000203  2.559434
  7099.024  7099.020  0.500  2.531984  152.077429  12.090329  2.584444
  7101.210  7101.190  0.500  2.524029  152.056805  12.185238  2.611639
  7103.370  7103.380  0.500  2.516252  152.033552  12.278488  2.638142
  7105.576  7105.580  0.500  2.508792  152.015859  12.368998  2.664676
  7107.805  7107.800  0.500  2.502999  151.973123  12.437360  2.685641
  7110.054  7110.050  0.500  2.500097  151.922957  12.469391  2.696894
  7112.316  7112.310  0.500  2.499703  151.741116  12.459366  2.695937
  7114.603  7114.590  0.500  2.502043  151.626912  12.420890  2.688342
  7116.902  7116.890  0.500  2.505643  151.604584  12.374434  2.676149
  7119.220  7119.210  0.500  2.508838  151.512834  12.327502  2.664761
  7121.560  7121.550  0.500  2.511273  151.415234  12.289589  2.655723
  7123.909  7123.900  0.500  2.514555  151.333217  12.242691  2.644545
  7126.294  7126.280  0.500  2.517723  151.208661  12.193929  2.632170
  7128.679  7128.670  0.500  2.520491  151.062906  12.148497  2.621545
  7131.102  7131.090  0.500  2.523442  150.879537  12.097993  2.610289
  7133.533  7133.520  0.500  2.525329  150.804518  12.069185  2.605428
  7135.979  7135.970  0.500  2.524757  150.794177  12.075256  2.608691
  7138.459  7138.450  0.500  2.522062  150.784525  12.107068  2.620156
  7140.951  7140.940  0.500  2.517672  150.802375  12.161775  2.637571
  7143.456  7143.450  0.500  2.511338  150.813163  12.239932  2.661192
  7145.983  7145.970  0.500  2.503283  150.799172  12.337782  2.690283
  7148.533  7148.520  0.500  2.495790  150.809185  12.431395  2.718509
  7151.093  7151.090  0.500  2.489241  150.798425  12.512187  2.742888
  7153.682  7153.670  0.500  2.484127  150.787442  12.575424  2.762600
  7156.294  7156.280  0.500  2.480402  150.760998  12.620134  2.776749
  7158.915  7158.900  0.500  2.477831  150.753201  12.651969  2.787669
  7161.557  7161.550  0.500  2.475936  150.711360  12.672457  2.796386
  7164.221  7164.210  0.500  2.474666  150.639880  12.682542  2.800748
  7166.904  7166.890  0.500  2.473891  150.575128  12.686909  2.805129
  7169.598  7169.590  0.500  2.472626  150.519374  12.698267  2.810827
  7172.319  7172.310  0.500  2.470792  150.474150  12.717760  2.818255
  7175.059  7175.050  0.500  2.468942  150.414206  12.736237  2.826369
  7177.816  7177.800  0.500  2.466633  150.381596  12.762907  2.836118
  7180.593  7180.580  0.500  2.463763  150.350991  12.796988  2.848178
  7183.382  7183.370  0.500  2.459911  150.301733  12.842159  2.863118
  7186.198  7186.190  0.500  2.454661  150.252194  12.905506  2.883564
  7189.030  7189.020  0.500  2.449022  150.252927  12.978557  2.904864
  7191.885  7191.870  0.500  2.443818  147.944346  12.845812  2.882008
  7194.763  7194.750  0.500  2.438894  150.013145  13.089746  2.943118
  7197.653  7197.640  0.500  2.434423  150.022804  13.149242  2.962949
  7200.556  7200.550  0.500  2.431027  149.965663  13.188956  2.977210
  7203.482  7203.470  0.500  2.428285  149.912742  13.220497  2.988827
  7206.440  7206.420  0.500  2.426576  149.842575  13.236907  2.996543
  7209.406  7209.390  0.500  2.425379  149.783560  13.247546  3.002154
  7212.376  7212.370  0.500  2.424624  149.700505  13.250195  3.006003
  7215.389  7215.380  0.500  2.423852  149.625162  13.253763  3.009460
  7218.416  7218.400  0.500  2.423146  149.558101  13.257170  3.012763
  7221.460  7221.450  0.500  2.422290  149.493144  13.262761  3.017410
  7224.525  7224.510  0.500  2.420992  149.415125  13.273062  3.023218
  7227.606  7227.590  0.500  2.418948  147.291808  13.111210  2.990214
  7230.708  7230.690  0.500  2.415574  149.435894  13.347025  3.048698
  7233.819  7233.810  0.500  2.412074  149.359393  13.386960  3.063276
  7236.957  7236.950  0.500  2.407838  149.283170  13.436931  3.080557
  7240.114  7240.100  0.500  2.403753  149.236567  13.487724  3.098944
  7243.289  7243.280  0.500  2.399338  149.172526  13.541589  3.117360
  7246.487  7246.470  0.500  2.394755  148.929087  13.581587  3.133529
  7249.701  7249.690  0.500  2.390014  149.012504  13.653772  3.156546
  7252.932  7252.920  0.500  2.385809  148.780627  13.689976  3.171622
  7256.185  7256.170  0.500  2.381190  149.069826  13.780089  3.200051
  7259.462  7259.450  0.500  2.376591  148.829575  13.821302  3.215329
  7262.752  7262.740  0.500  2.373135  147.249671  13.721920  3.199012
  7266.057  7266.050  0.500  2.369795  148.339457  13.869729  3.238244
  7269.377  7269.370  0.500  2.366980  149.237100  13.992985  3.272785
  7272.729  7272.720  0.500  2.364560  149.012618  14.005799  3.279912
  7276.101  7276.090  0.500  2.362451  149.261353  14.058786  3.297781
  7279.475  7279.470  0.500  2.359818  149.166105  14.086855  3.308594
  7282.891  7282.880  0.500  2.356884  149.056453  14.117863  3.321854
  7286.308  7286.300  0.500  2.353422  148.828723  14.145182  3.334479
  7289.761  7289.750  0.500  2.349676  148.896209  14.204702  3.355361
  7293.223  7293.210  0.500  2.344805  148.852909  14.269916  3.376777
  7296.702  7296.690  0.500  2.340325  148.776292  14.326610  3.398031
  7300.198  7300.190  0.500  2.335770  148.503234  14.365599  3.415308
  7303.719  7303.710  0.500  2.331401  148.806221  14.457938  3.444335
  7307.256  7307.250  0.500  2.327687  148.707312  14.502094  3.462080
  7310.811  7310.800  0.500  2.323989  148.617350  14.547020  3.479435
  7314.387  7314.380  0.500  2.320384  148.527610  14.590743  3.496170
  7317.987  7317.980  0.500  2.317115  148.452302  14.631086  3.512432
  7321.596  7321.590  0.500  2.313669  148.378622  14.674315  3.528759
  7325.231  7325.220  0.500  2.310299  148.304696  14.716508  3.546930
  7328.893  7328.880  0.500  2.306978  148.217480  14.756778  3.561304
  7332.565  7332.550  0.500  2.303809  148.151649  14.797044  3.576982
  7336.255  7336.240  0.500  2.300665  148.088669  14.837323  3.592666
  7339.965  7339.950  0.500  2.297781  147.101543  14.780991  3.586175
  7343.695  7343.680  0.500  2.294734  147.840448  14.900568  3.621035
  7347.433  7347.420  0.500  2.291431  147.807348  14.946527  3.639765
  7351.201  7351.190  0.500  2.287824  147.741557  14.993849  3.657825
  7354.989  7354.980  0.500  2.283751  147.672553  15.048017  3.678845
  7358.794  7358.780  0.500  2.279338  147.584391  15.105549  3.700307
  7362.622  7362.610  0.500  2.275068  147.509284  15.162461  3.722126
  7366.461  7366.450  0.500  2.270725  147.415576  15.218783  3.743174
  7370.321  7370.310  0.500  2.266092  147.354771  15.283149  3.768151
  7374.201  7374.190  0.500  2.261568  147.262537  15.342838  3.792249
  7378.103  7378.090  0.500  2.256718  147.171309  15.407877  3.816501
  7382.024  7382.010  0.500  2.252094  147.074098  15.469077  3.840702
  7385.965  7385.950  0.500  2.247672  146.984882  15.528205  3.863414
  7389.932  7389.910  0.500  2.243359  146.909905  15.587368  3.886785
  7393.898  7393.880  0.500  2.238729  146.826735  15.650839  3.910080
  7397.902  7397.880  0.500  2.234215  146.734187  15.711731  3.934366
  7401.903  7401.890  0.500  2.230060  146.629762  15.765923  3.956149
  7405.929  7405.930  0.500  2.225957  146.534327  15.820435  3.977723
  7410.005  7409.980  0.500  2.222382  146.428636  15.865646  3.996185
  7414.068  7414.050  0.500  2.219220  146.327701  15.904926  4.015092
  7418.158  7418.140  0.500  2.215729  146.226268  15.949483  4.033357
  7422.268  7422.250  0.500  2.212521  146.118010  15.988878  4.051491
  7426.374  7426.380  0.500  2.208797  146.014540  16.037175  4.072732
  7430.520  7430.530  0.500  2.204691  145.907054  16.091295  4.094788
  7434.677  7434.690  0.500  2.200033  145.806282  16.155261  4.120264
  7438.887  7438.880  0.500  2.195377  145.652892  16.213588  4.145032
  7443.078  7443.080  0.500  2.190862  145.466321  16.266097  4.167183
  7447.316  7447.310  0.500  2.186120  145.517336  16.349141  4.198186
  7451.571  7451.550  0.500  2.181516  145.207772  16.389640  4.218006
  7455.801  7455.810  0.500  2.176748  145.776805  16.532508  4.264223
  7460.087  7460.090  0.500  2.172184  143.542474  16.353586  4.228181
  7464.381  7464.390  0.500  2.167378  145.523626  16.659168  4.316290
  7468.704  7468.710  0.500  2.162635  145.421562  16.726620  4.343728
  7473.051  7473.050  0.500  2.157899  145.379751  16.801194  4.373935
  7477.396  7477.410  0.500  2.152990  145.229074  16.866376  4.400396
  7481.778  7481.790  0.500  2.148607  145.092886  16.924583  4.426212
  7486.200  7486.180  0.500  2.144329  144.935894  16.978758  4.450086
  7490.578  7490.600  0.500  2.140132  144.794388  17.033518  4.473738
  7495.014  7495.030  0.500  2.136425  144.671853  17.082298  4.495133
  7499.474  7499.480  0.500  2.133000  144.556335  17.127223  4.516608
  7503.933  7503.950  0.500  2.129278  144.410900  17.173795  4.538839
  7508.462  7508.440  0.500  2.125124  144.238149  17.224656  4.562094
  7512.936  7512.950  0.500  2.120564  144.093286  17.285995  4.587925
  7517.462  7517.480  0.500  2.115764  143.923960  17.348769  4.616724
  7522.006  7522.030  0.500  2.110463  143.794593  17.425294  4.648593
  7526.594  7526.600  0.500  2.104802  143.656882  17.507428  4.682361
  7531.170  7531.180  0.500  2.099333  143.514789  17.586036  4.715799
  7535.779  7535.790  0.500  2.093443  143.353743  17.670076  4.749723
  7540.399  7540.410  0.500  2.088015  143.200503  17.747260  4.782846
  7545.039  7545.060  0.500  2.082832  143.052872  17.821092  4.814933
  7549.702  7549.720  0.500  2.077676  142.881718  17.891784  4.846096
  7554.386  7554.400  0.500  2.072881  142.726607  17.958260  4.875686
  7559.076  7559.100  0.500  2.068031  142.565900  18.025243  4.905636
  7563.796  7563.820  0.500  2.063466  142.397487  18.086333  4.933214
  7568.586  7568.560  0.500  2.059245  142.234971  18.142104  4.959552
  7573.311  7573.310  0.500  2.055227  142.079335  18.195212  4.984940
  7578.125  7578.090  0.500  2.051126  141.904190  18.247472  5.011210
  7582.875  7582.890  0.500  2.047266  141.716637  18.293816  5.034815
  7587.714  7587.700  0.500  2.043361  141.508483  18.338418  5.057085
  7592.565  7592.530  0.500  2.040083  141.287274  18.369871  5.074704
