# XDI/1.0 BlueSky/1.10.0 BMM/2023-1.0-py310-tiled
# Beamline.name: BMM (06BM) -- Beamline for Materials Measurement (NIST)
# Beamline.xray_source: NSLS-II three-pole wiggler
# Beamline.collimation: paraboloid mirror, 5 nm Rh on 30 nm Pt
# Beamline.focusing: not in use
# Beamline.harmonic_rejection: flat mirror, Pt stripe, pitch = 7.0 mrad relative to beam
# Beamline.software: Bluesky 1.10.0, Ophyd 1.7.0, DataBroker 2.0.0b13, Python 3.10.8, 2023-1.0-py310-tiled
# Detector.I0: 10 cm N2
# Detector.I1: 25 cm N2
# Detector.I2: 25 cm N2
# Element.symbol: Eu
# Element.edge: L1
# Element.reference: Eu
# Element.reference_material: Eu2O3
# Facility.name: NSLS-II
# Facility.energy: 3.0
# Facility.current: 399.5
# Facility.mode: top-off
# Facility.GUP: 123456
# Facility.SAF: 301027
# Facility.cycle: 2023-2
# Mono.name: Si(111)
# Mono.d_spacing: 3.1351860
# Mono.encoder_resolution: 0.0000050 deg/ct
# Mono.angle_offset: 16.0754326 deg
# Mono.scan_mode: pseudo channel cut
# Mono.scan_type: step
# Mono.direction: forward in energy
# Sample.name: Eu2Ti2O7
# Sample.prep: powder on tape
# Sample.x: 123.848 mm
# Sample.y: 114.690 mm
# Sample.SDD_position: 205.000 mm
# Scan.experimenters: Bruce Ravel
# Scan.edge_energy: 8052.0
# Scan.start_time: 2023-05-08T21:09:57
# Scan.end_time: 2023-05-08T21:15:50
# Scan.transient_id: 75615
# Scan.uid: a11347a3-585f-473e-94f1-571af7eb0034
# Scan.plot_hint: ln(I0/It)  --  ln($5/$6)
# Column.1: energy eV
# Column.2: requested_energy eV
# Column.3: measurement_time seconds
# Column.4: xmu 
# Column.5: I0 nA
# Column.6: It nA
# Column.7: Ir nA
# ///////////
# material made by Fatih Dogan
# -----------
# energy  requested_energy  measurement_time  xmu  I0  It  Ir
  7852.003  7852.000  0.500  0.746211  135.708678  64.347611  17.324566
  7862.015  7862.000  0.500  0.741894  135.489911  64.521821  17.424948
  7872.051  7872.000  0.500  0.737655  135.323099  64.716138  17.543752
  7882.060  7882.000  0.500  0.732656  135.166863  64.965357  17.691788
  7892.061  7892.000  0.500  0.726895  135.008581  65.264187  17.856983
  7902.046  7902.000  0.500  0.721921  134.745471  65.461797  17.992619
  7912.038  7912.000  0.500  0.717629  134.542554  65.644377  18.114293
  7922.034  7922.000  0.500  0.713316  134.328603  65.823261  18.232909
  7932.017  7932.000  0.500  0.708716  134.065369  65.997158  18.358530
  7942.028  7942.000  0.500  0.703547  134.071318  66.342120  18.534495
  7952.022  7952.000  0.500  0.698232  133.571311  66.446956  18.640150
  7962.021  7962.000  0.500  0.693188  133.491906  66.743220  18.798211
  7972.021  7972.000  0.500  0.688844  133.307752  66.941324  18.921891
  7982.016  7982.000  0.500  0.684412  132.998936  67.082887  19.029940
  7992.019  7992.000  0.500  0.680139  132.844254  67.291816  19.163733
  8002.018  8002.000  0.500  0.675693  132.562533  67.448328  19.282105
  8011.979  8012.000  0.500  0.671185  132.583286  67.763633  19.449707
  8021.972  8022.000  0.500  0.666669  132.208173  67.877768  19.559933
  8023.981  8024.000  0.500  0.665917  132.213433  67.931565  19.586975
  8025.976  8026.000  0.500  0.665094  132.128960  67.944035  19.604789
  8027.985  8028.000  0.500  0.664352  132.116886  67.988234  19.632195
  8029.987  8030.000  0.500  0.663544  132.053338  68.010505  19.652376
  8031.984  8032.000  0.500  0.662433  132.008116  68.062782  19.679654
  8033.985  8034.000  0.500  0.661675  131.948629  68.083721  19.698703
  8035.988  8036.000  0.500  0.660895  131.905080  68.114345  19.717627
  8037.988  8038.000  0.500  0.660322  131.827568  68.113351  19.728268
  8039.987  8040.000  0.500  0.659717  131.780053  68.130005  19.743378
  8041.984  8042.000  0.500  0.659071  131.715821  68.140750  19.752321
  8042.471  8042.500  0.500  0.659167  131.700943  68.126536  19.751458
  8042.972  8043.000  0.500  0.659098  131.671645  68.116048  19.750386
  8043.473  8043.500  0.500  0.658689  131.654507  68.135099  19.753716
  8043.974  8044.000  0.500  0.658762  132.005003  68.311471  19.808946
  8044.478  8044.500  0.500  0.658506  132.151446  68.404806  19.835368
  8044.979  8045.000  0.500  0.658515  132.122560  68.389185  19.831405
  8045.474  8045.500  0.500  0.658415  132.109883  68.389464  19.830662
  8045.981  8046.000  0.500  0.658272  132.098112  68.393200  19.830872
  8046.480  8046.500  0.500  0.658264  132.090534  68.389798  19.830026
  8046.981  8047.000  0.500  0.658416  132.040562  68.353527  19.822132
  8047.480  8047.500  0.500  0.658430  132.055749  68.360463  19.820777
  8047.981  8048.000  0.500  0.658486  132.027043  68.341752  19.814035
  8048.483  8048.500  0.500  0.658501  131.879475  68.264360  19.787759
  8048.984  8049.000  0.500  0.658641  131.988018  68.310928  19.797684
  8049.489  8049.500  0.500  0.658601  131.986076  68.312657  19.792613
  8049.991  8050.000  0.500  0.658845  131.957233  68.281124  19.779193
  8050.490  8050.500  0.500  0.659132  131.955246  68.260487  19.766052
  8050.989  8051.000  0.500  0.659475  131.912210  68.214814  19.745739
  8051.491  8051.500  0.500  0.659625  131.867573  68.181463  19.725750
  8051.993  8052.000  0.500  0.660069  131.875167  68.155165  19.706733
  8052.492  8052.500  0.500  0.660719  131.853278  68.099587  19.676042
  8052.986  8053.000  0.500  0.661403  131.814088  68.032791  19.636613
  8053.488  8053.500  0.500  0.662192  131.793320  67.968410  19.593804
  8053.988  8054.000  0.500  0.663470  131.750027  67.859284  19.533560
  8054.493  8054.500  0.500  0.664607  131.712260  67.762759  19.473143
  8054.995  8055.000  0.500  0.665923  131.680283  67.657210  19.410810
  8055.501  8055.500  0.500  0.667205  131.626204  67.542758  19.342817
  8056.000  8056.000  0.500  0.668524  131.547989  67.413671  19.275123
  8056.500  8056.500  0.500  0.669985  131.399824  67.239448  19.194562
  8056.992  8057.000  0.500  0.671641  131.095960  66.972932  19.092906
  8057.497  8057.500  0.500  0.672895  130.348350  66.507523  18.932899
  8057.994  8058.000  0.500  0.673938  127.623162  65.049192  18.493236
  8058.495  8058.500  0.500  0.675616  125.917964  64.072452  18.188759
  8058.986  8059.000  0.500  0.677262  127.845241  64.946152  18.410874
  8059.492  8059.500  0.500  0.679139  131.023799  66.436050  18.802006
  8059.990  8060.000  0.500  0.680790  131.880230  66.760001  18.863819
  8060.504  8060.500  0.500  0.682358  131.927109  66.679131  18.809466
  8060.999  8061.000  0.500  0.684099  131.916995  66.557992  18.741776
  8061.499  8061.500  0.500  0.686113  131.852793  66.391738  18.654775
  8061.997  8062.000  0.500  0.688243  131.833947  66.241061  18.568221
  8062.503  8062.500  0.500  0.690430  131.818957  66.088808  18.478395
  8062.993  8063.000  0.500  0.692575  131.795285  65.935387  18.383897
  8063.493  8063.500  0.500  0.694751  131.768829  65.778801  18.287162
  8063.989  8064.000  0.500  0.696926  131.714633  65.608906  18.185737
  8064.492  8064.500  0.500  0.699454  131.630708  65.401577  18.069460
  8064.993  8065.000  0.500  0.702122  131.678936  65.251196  17.969966
  8065.500  8065.500  0.500  0.704878  131.617555  65.041321  17.851616
  8065.998  8066.000  0.500  0.707767  131.617984  64.853871  17.750202
  8066.496  8066.500  0.500  0.710544  131.567676  64.649312  17.645501
  8066.995  8067.000  0.500  0.713513  131.537996  64.443109  17.548118
  8067.501  8067.500  0.500  0.716437  131.476081  64.224710  17.454310
  8068.003  8068.000  0.500  0.718775  131.410512  64.042750  17.377005
  8068.499  8068.500  0.500  0.720574  131.263500  63.856137  17.304327
  8068.992  8069.000  0.500  0.721980  130.867165  63.573882  17.213616
  8069.496  8069.500  0.500  0.722907  129.039698  62.628047  16.948064
  8069.995  8070.000  0.500  0.723490  126.040959  61.136990  16.541384
  8070.499  8070.500  0.500  0.723514  127.181495  61.688735  16.687741
  8071.004  8071.000  0.500  0.723103  130.240571  63.198496  17.095229
  8071.500  8071.500  0.500  0.722238  131.441733  63.836530  17.273782
  8072.002  8072.000  0.500  0.721208  131.518819  63.939771  17.306921
  8072.503  8072.500  0.500  0.719713  131.502269  64.027390  17.338188
  8072.997  8073.000  0.500  0.718413  131.473136  64.096491  17.366099
  8073.499  8073.500  0.500  0.716977  131.479541  64.191748  17.401073
  8073.998  8074.000  0.500  0.715255  131.445601  64.285761  17.433617
  8074.498  8074.500  0.500  0.713670  131.414576  64.372525  17.468409
  8074.994  8075.000  0.500  0.712214  131.391517  64.455036  17.498826
  8075.499  8075.500  0.500  0.710466  131.376500  64.560427  17.538225
  8075.999  8076.000  0.500  0.708955  131.332426  64.636341  17.568698
  8076.507  8076.500  0.500  0.707149  131.269148  64.721945  17.603086
  8077.001  8077.000  0.500  0.705518  131.191738  64.789368  17.630846
  8077.992  8077.990  0.500  0.702932  130.842585  64.784301  17.651574
  8078.995  8078.990  0.500  0.700976  126.674030  62.843077  17.147412
  8080.023  8080.010  0.500  0.700031  128.937183  64.026322  17.494275
  8081.068  8081.060  0.500  0.699782  131.249088  65.190567  17.844948
  8082.132  8082.120  0.500  0.700014  131.250192  65.175998  17.879336
  8083.198  8083.200  0.500  0.700194  131.238710  65.158556  17.915540
  8084.308  8084.300  0.500  0.699650  131.181377  65.165521  17.961153
  8085.435  8085.420  0.500  0.698725  131.133354  65.201961  18.016270
  8086.571  8086.560  0.500  0.697294  131.060910  65.259261  18.073210
  8087.713  8087.710  0.500  0.695404  130.974348  65.339573  18.138353
  8088.900  8088.890  0.500  0.693128  130.808648  65.405558  18.190384
  8090.090  8090.080  0.500  0.690829  130.349836  65.326180  18.199321
  8091.312  8091.300  0.500  0.688760  125.356482  62.953844  17.564383
  8092.533  8092.530  0.500  0.686680  130.316380  65.580977  18.316954
  8093.789  8093.780  0.500  0.684895  131.152970  66.119866  18.490788
  8095.062  8095.050  0.500  0.683527  131.044026  66.155374  18.520559
  8096.341  8096.340  0.500  0.682503  131.028081  66.215109  18.549383
  8097.657  8097.650  0.500  0.681849  131.021102  66.254869  18.566318
  8098.993  8098.980  0.500  0.681769  130.972133  66.235443  18.564085
  8100.347  8100.330  0.500  0.682021  130.903643  66.184117  18.550489
  8101.706  8101.700  0.500  0.682684  130.865514  66.120964  18.525928
  8103.091  8103.080  0.500  0.683500  130.802996  66.035473  18.495170
  8104.502  8104.490  0.500  0.684542  130.767927  65.949003  18.461895
  8105.914  8105.910  0.500  0.685633  130.742041  65.864107  18.429131
  8107.368  8107.350  0.500  0.686721  130.679776  65.761145  18.391021
  8108.820  8108.810  0.500  0.687669  130.647161  65.682388  18.359436
  8110.298  8110.290  0.500  0.688267  130.650219  65.644665  18.340266
  8111.799  8111.790  0.500  0.688422  130.575312  65.596850  18.316570
  8113.328  8113.310  0.500  0.687542  130.524497  65.629054  18.318487
  8114.859  8114.850  0.500  0.686522  130.501520  65.684523  18.329273
  8116.418  8116.410  0.500  0.685036  130.461502  65.761990  18.345911
  8117.994  8117.980  0.500  0.683295  130.425745  65.858507  18.374358
  8119.594  8119.580  0.500  0.681933  130.348130  65.909055  18.391607
  8121.200  8121.190  0.500  0.680737  130.282456  65.954698  18.410888
  8122.846  8122.830  0.500  0.679252  130.311209  66.067282  18.455569
  8124.485  8124.480  0.500  0.678188  130.249397  66.106262  18.479612
  8126.164  8126.150  0.500  0.677134  130.211690  66.156804  18.515805
  8127.852  8127.840  0.500  0.676187  130.182499  66.204606  18.552563
  8129.557  8129.550  0.500  0.675584  130.146176  66.226053  18.586376
  8131.292  8131.280  0.500  0.674766  130.104831  66.259240  18.623553
  8133.042  8133.030  0.500  0.673989  130.020889  66.267915  18.655272
  8134.803  8134.790  0.500  0.673211  129.997555  66.307618  18.692360
  8136.591  8136.580  0.500  0.672401  129.953408  66.338823  18.722664
  8138.392  8138.380  0.500  0.671800  129.885292  66.343913  18.745886
  8140.221  8140.210  0.500  0.670936  129.814074  66.364834  18.772657
  8142.060  8142.050  0.500  0.670171  129.749887  66.382770  18.794928
  8143.922  8143.910  0.500  0.669419  129.692452  66.403299  18.815332
  8145.805  8145.790  0.500  0.668636  129.692462  66.455361  18.845329
  8147.700  8147.690  0.500  0.667595  129.634681  66.494874  18.867904
  8149.622  8149.610  0.500  0.666421  129.483565  66.495431  18.881440
  8151.565  8151.550  0.500  0.665433  129.496983  66.568060  18.916763
  8153.526  8153.510  0.500  0.664531  129.449398  66.603661  18.941533
  8155.496  8155.480  0.500  0.663601  129.411406  66.646047  18.973162
  8157.481  8157.480  0.500  0.662444  129.271693  66.651169  18.990669
  8159.505  8159.490  0.500  0.661137  129.372016  66.790107  19.049368
  8161.524  8161.520  0.500  0.660070  129.304315  66.826442  19.079231
  8163.601  8163.580  0.500  0.658643  129.192496  66.863997  19.110073
  8165.653  8165.650  0.500  0.657535  129.165338  66.924072  19.146358
  8167.755  8167.740  0.500  0.656531  129.130799  66.973331  19.175372
  8169.858  8169.850  0.500  0.655613  129.091829  67.014605  19.203722
  8171.996  8171.980  0.500  0.654931  129.007969  67.016788  19.216746
  8174.128  8174.120  0.500  0.654055  128.962505  67.051873  19.241562
  8176.309  8176.290  0.500  0.653268  128.902970  67.073728  19.261832
  8178.488  8178.480  0.500  0.652717  128.849081  67.082592  19.275548
  8180.697  8180.680  0.500  0.652100  128.782620  67.089396  19.289280
  8182.907  8182.900  0.500  0.651309  128.702325  67.100619  19.300037
  8185.168  8185.150  0.500  0.650454  128.642393  67.126756  19.316681
  8187.426  8187.410  0.500  0.649344  128.655411  67.208075  19.349141
  8189.704  8189.690  0.500  0.648208  128.567733  67.238652  19.369949
  8192.008  8191.990  0.500  0.646887  128.514267  67.299503  19.402899
  8194.320  8194.310  0.500  0.645457  128.433571  67.353505  19.439318
  8196.670  8196.650  0.500  0.644306  128.396199  67.411422  19.475382
  8199.013  8199.000  0.500  0.643010  128.312916  67.455063  19.507577
  8201.392  8201.380  0.500  0.641997  128.296626  67.514885  19.548034
  8203.781  8203.770  0.500  0.641028  128.201340  67.530119  19.575719
  8206.200  8206.190  0.500  0.639983  128.181438  67.590245  19.615402
  8208.636  8208.620  0.500  0.638779  128.067568  67.611560  19.645848
  8211.084  8211.070  0.500  0.637251  128.039892  67.700310  19.696095
  8213.574  8213.550  0.500  0.636053  127.936362  67.726687  19.730259
  8216.052  8216.040  0.500  0.634995  127.865900  67.761033  19.762160
  8218.562  8218.550  0.500  0.634024  127.829369  67.807474  19.792591
  8221.086  8221.070  0.500  0.633119  127.778302  67.841776  19.823399
  8223.632  8223.620  0.500  0.632222  127.712854  67.867870  19.848816
  8226.211  8226.190  0.500  0.631415  127.636278  67.881898  19.867210
  8228.778  8228.770  0.500  0.630574  127.574868  67.906345  19.891020
  8231.401  8231.380  0.500  0.629539  127.539645  67.957870  19.921711
  8234.017  8234.000  0.500  0.628505  127.469666  67.990858  19.951161
  8236.661  8236.650  0.500  0.627421  127.412316  68.033966  19.979540
  8239.345  8239.310  0.500  0.626181  127.322219  68.070241  20.009187
  8241.984  8241.990  0.500  0.624906  127.158677  68.069520  20.030079
  8244.695  8244.690  0.500  0.623698  127.153624  68.149115  20.075150
  8247.419  8247.410  0.500  0.622054  127.068915  68.215772  20.117345
  8250.156  8250.150  0.500  0.620729  127.016133  68.277831  20.157653
  8252.919  8252.900  0.500  0.619225  126.921530  68.329695  20.194939
  8255.701  8255.680  0.500  0.618262  126.867702  68.366498  20.233015
  8258.489  8258.470  0.500  0.616830  126.820881  68.439199  20.277659
  8261.304  8261.290  0.500  0.615432  126.689236  68.463814  20.308399
  8264.127  8264.120  0.500  0.614218  126.643219  68.522052  20.346811
  8266.984  8266.970  0.500  0.612930  126.533421  68.550894  20.378374
  8269.864  8269.850  0.500  0.611637  126.483292  68.612426  20.419251
  8272.749  8272.740  0.500  0.610537  126.397645  68.641380  20.447149
  8275.669  8275.650  0.500  0.609335  126.327160  68.685604  20.478306
  8278.584  8278.570  0.500  0.608031  124.758741  67.921359  20.268962
  8281.534  8281.520  0.500  0.606922  126.104049  68.729987  20.531241
  8284.510  8284.490  0.500  0.605846  126.021240  68.758767  20.560124
  8287.485  8287.470  0.500  0.604664  125.993767  68.825069  20.601336
  8290.498  8290.480  0.500  0.603433  125.929444  68.874700  20.642114
  8293.524  8293.500  0.500  0.602182  125.808740  68.894841  20.671224
  8296.559  8296.550  0.500  0.600727  125.727991  68.950818  20.714746
  8299.631  8299.610  0.500  0.599503  125.961321  69.163436  20.803315
  8302.700  8302.690  0.500  0.598086  126.054110  69.312481  20.872555
  8305.798  8305.790  0.500  0.596786  125.980248  69.361988  20.915440
  8308.916  8308.910  0.500  0.595283  125.915032  69.430351  20.961367
  8312.063  8312.050  0.500  0.593701  125.809770  69.482133  21.001687
  8315.213  8315.200  0.500  0.592291  125.716628  69.528693  21.044572
  8318.394  8318.380  0.500  0.590821  125.644081  69.590799  21.088063
  8321.576  8321.570  0.500  0.589396  125.517780  69.619960  21.122822
  8324.798  8324.790  0.500  0.588151  125.463075  69.676346  21.165491
  8328.029  8328.020  0.500  0.587025  125.396609  69.717856  21.202593
  8331.271  8331.270  0.500  0.585726  125.262345  69.733760  21.231990
  8334.555  8334.550  0.500  0.584469  125.000766  69.675677  21.239372
  8337.853  8337.840  0.500  0.583201  124.903018  69.709504  21.275876
  8341.157  8341.150  0.500  0.581841  124.788312  69.740247  21.307907
  8344.472  8344.470  0.500  0.580472  124.625981  69.744971  21.334790
  8347.836  8347.820  0.500  0.578978  124.473464  69.763742  21.367142
  8351.205  8351.190  0.500  0.577668  124.206927  69.705619  21.374353
  8354.576  8354.570  0.500  0.576403  124.022360  69.690132  21.399421
  8357.990  8357.980  0.500  0.574830  123.968037  69.769286  21.447442
  8361.415  8361.400  0.500  0.573310  123.912999  69.844382  21.494800
  8364.858  8364.850  0.500  0.571643  123.843041  69.921431  21.548147
  8368.319  8368.310  0.500  0.570041  123.751310  69.981669  21.598358
  8371.798  8371.790  0.500  0.568576  123.714828  70.063595  21.651307
  8375.302  8375.290  0.500  0.566997  123.575525  70.095304  21.692309
  8378.814  8378.810  0.500  0.565449  123.514325  70.169076  21.739628
  8382.362  8382.350  0.500  0.563885  123.410699  70.219965  21.782519
  8385.911  8385.900  0.500  0.562488  123.205457  70.201195  21.804021
  8389.489  8389.480  0.500  0.561111  123.077372  70.224850  21.835176
  8393.086  8393.080  0.500  0.559744  122.982950  70.266968  21.875874
  8396.711  8396.690  0.500  0.558401  122.855118  70.288240  21.908252
  8400.332  8400.320  0.500  0.556837  122.714840  70.317901  21.946902
  8403.996  8403.980  0.500  0.555356  122.642082  70.380339  21.993351
  8407.670  8407.650  0.500  0.553894  122.568982  70.441329  22.042269
  8411.359  8411.340  0.500  0.552615  122.469202  70.474052  22.081195
  8415.063  8415.050  0.500  0.551314  122.344290  70.493852  22.117501
  8418.798  8418.780  0.500  0.549623  122.181486  70.519131  22.154814
  8422.537  8422.520  0.500  0.548013  122.152410  70.615979  22.218268
  8426.312  8426.290  0.500  0.546459  122.036146  70.658480  22.261211
  8430.091  8430.080  0.500  0.544886  121.924628  70.705064  22.306935
  8433.901  8433.880  0.500  0.543193  121.837625  70.774348  22.361095
  8437.730  8437.710  0.500  0.541535  121.699466  70.811392  22.404372
  8441.565  8441.550  0.500  0.539837  121.597449  70.872217  22.454555
  8445.420  8445.410  0.500  0.538386  121.477192  70.904987  22.497335
  8449.314  8449.290  0.500  0.536822  121.369136  70.952774  22.544762
  8453.213  8453.190  0.500  0.535285  121.251564  70.993093  22.589183
  8457.133  8457.110  0.500  0.533581  121.098648  71.024455  22.630801
  8461.073  8461.050  0.500  0.532024  120.982559  71.066934  22.674964
  8465.031  8465.010  0.500  0.530335  120.869214  71.120401  22.724540
  8468.997  8468.980  0.500  0.528745  120.740542  71.157737  22.767804
  8473.006  8472.980  0.500  0.527317  120.607287  71.180756  22.808424
  8477.014  8476.990  0.500  0.525797  120.443679  71.192312  22.841113
  8481.046  8481.030  0.500  0.524475  120.328650  71.218422  22.881779
  8485.092  8485.080  0.500  0.522818  120.190555  71.254657  22.924279
  8489.173  8489.150  0.500  0.521187  120.065487  71.296703  22.969362
  8493.264  8493.240  0.500  0.519469  119.919400  71.332401  23.012785
  8497.381  8497.350  0.500  0.517816  119.670005  71.301859  23.036638
  8501.508  8501.480  0.500  0.516280  119.622432  71.383048  23.095702
  8505.643  8505.630  0.500  0.514480  119.508552  71.443566  23.147858
  8509.812  8509.790  0.500  0.512796  119.325668  71.454454  23.183846
  8514.008  8513.980  0.500  0.511140  119.163523  71.475649  23.227914
  8518.195  8518.180  0.500  0.509491  118.955861  71.468811  23.257471
  8522.440  8522.410  0.500  0.507755  118.734212  71.459590  23.288825
  8526.673  8526.650  0.500  0.506071  118.151715  71.228859  23.246984
  8530.927  8530.910  0.500  0.504501  102.871293  62.114379  20.302983
  8535.216  8535.190  0.500  0.502823  118.738387  71.815478  23.507103
  8539.515  8539.490  0.500  0.501296  118.646316  71.869416  23.561182
  8543.832  8543.810  0.500  0.499729  118.463504  71.871217  23.596417
  8548.172  8548.150  0.500  0.498181  118.259951  71.858889  23.626124
  8552.529  8552.510  0.500  0.496176  118.086246  71.897316  23.671018
  8556.913  8556.890  0.500  0.494622  117.943615  71.922171  23.713397
  8561.301  8561.280  0.500  0.493113  117.805302  71.946351  23.758595
  8565.729  8565.700  0.500  0.491420  117.614167  71.951334  23.795811
  8570.174  8570.130  0.500  0.489757  117.491849  71.996093  23.845198
  8574.607  8574.580  0.500  0.487999  117.310748  72.011624  23.884811
  8579.075  8579.050  0.500  0.486230  117.163088  72.048292  23.935993
  8583.553  8583.540  0.500  0.484524  116.995683  72.068180  23.976667
  8588.070  8588.050  0.500  0.482734  116.788662  72.069571  24.015230
  8592.609  8592.580  0.500  0.480869  105.162303  65.016151  21.701002
  8597.152  8597.130  0.500  0.479352  115.685151  71.630475  23.944723
