# XDI/1.0 BlueSky/1.10.0 BMM/2023-1.0-py310-tiled
# Beamline.name: BMM (06BM) -- Beamline for Materials Measurement (NIST)
# Beamline.xray_source: NSLS-II three-pole wiggler
# Beamline.collimation: paraboloid mirror, 5 nm Rh on 30 nm Pt
# Beamline.focusing: not in use
# Beamline.harmonic_rejection: flat mirror, Pt stripe, pitch = 7.0 mrad relative to beam
# Beamline.software: Bluesky 1.10.0, Ophyd 1.7.0, DataBroker 2.0.0b13, Python 3.10.8, 2023-1.0-py310-tiled
# Detector.I0: 10 cm N2
# Detector.I1: 25 cm N2
# Detector.I2: 25 cm N2
# Element.symbol: Zn
# Element.edge: K
# Element.reference: Zn
# Element.reference_material: Zn foil
# Facility.name: NSLS-II
# Facility.energy: 3.0
# Facility.current: 399.5
# Facility.mode: top-off
# Facility.GUP: 301027
# Facility.SAF: 310583
# Facility.cycle: 2023-2
# Mono.name: Si(111)
# Mono.d_spacing: 3.1351860
# Mono.encoder_resolution: 0.0000050 deg/ct
# Mono.angle_offset: 16.0754326 deg
# Mono.scan_mode: pseudo channel cut
# Mono.scan_type: step
# Mono.direction: forward in energy
# Sample.name: Zn foil
# Sample.prep: reference foil
# Sample.x: 109.138 mm
# Sample.y: 153.150 mm
# Sample.SDD_position: 205.000 mm
# Scan.experimenters: Bruce Ravel
# Scan.edge_energy: 9658.6
# Scan.start_time: 2023-05-28T16:55:49
# Scan.end_time: 2023-05-28T17:04:16
# Scan.transient_id: 78854
# Scan.uid: 9b3b008e-5e64-4fbf-a85f-cbcbceb8250a
# Scan.plot_hint: ln(It/Ir)  --  ln($6/$7)
# Column.1: energy eV
# Column.2: requested_energy eV
# Column.3: measurement_time seconds
# Column.4: xmu 
# Column.5: I0 nA
# Column.6: It nA
# Column.7: Ir nA
# ///////////
# standard reference foil
# -----------
# energy  requested_energy  measurement_time  xmu  I0  It  Ir
  9458.577  9458.600  0.500  0.717076  108.018437  158.325995  77.291196
  9468.646  9468.600  0.500  0.714846  107.873004  158.261456  77.432193
  9478.633  9478.600  0.500  0.712595  107.704577  158.160208  77.557024
  9488.637  9488.600  0.500  0.710404  107.501692  158.000317  77.648597
  9498.655  9498.600  0.500  0.708224  107.315980  157.877209  77.757377
  9508.613  9508.600  0.500  0.706024  107.118030  157.720853  77.851476
  9518.678  9518.600  0.500  0.703814  106.970399  157.657619  77.992394
  9528.612  9528.600  0.500  0.701643  107.178080  158.077412  78.370045
  9538.674  9538.600  0.500  0.699489  107.018592  157.992827  78.497047
  9548.635  9548.600  0.500  0.697425  106.815331  157.837924  78.582058
  9558.657  9558.600  0.500  0.695387  106.629655  157.710548  78.678812
  9568.661  9568.600  0.500  0.693260  106.471195  157.597562  78.789856
  9578.627  9578.600  0.500  0.691256  106.314127  157.494413  78.896271
  9588.654  9588.600  0.500  0.689364  106.123574  157.367816  78.982177
  9598.635  9598.600  0.500  0.687544  105.925312  157.207108  79.045250
  9608.637  9608.600  0.500  0.685776  105.736604  157.068368  79.115199
  9618.632  9618.600  0.500  0.684391  105.392150  156.696233  79.037139
  9628.644  9628.600  0.500  0.683404  105.371204  156.808644  79.171942
  9630.571  9630.600  0.500  0.683365  105.321204  156.762640  79.151805
  9632.575  9632.600  0.500  0.683194  105.305721  156.755092  79.161512
  9634.575  9634.600  0.500  0.683255  105.068759  156.428564  78.991797
  9636.568  9636.600  0.500  0.683312  105.165870  156.592972  79.070358
  9638.570  9638.600  0.500  0.683470  105.151150  156.601779  79.062319
  9640.573  9640.600  0.500  0.683784  105.113656  156.576861  79.024933
  9642.589  9642.600  0.500  0.684239  105.108268  156.601296  79.001266
  9644.573  9644.600  0.500  0.684918  105.033460  156.491653  78.892411
  9646.575  9646.600  0.500  0.685762  104.991188  156.441855  78.800765
  9648.581  9648.600  0.500  0.687170  104.903649  156.349644  78.643468
  9648.866  9648.900  0.500  0.687373  104.844684  156.272624  78.588784
  9649.164  9649.200  0.500  0.687626  104.801235  156.224090  78.544482
  9649.466  9649.500  0.500  0.687893  104.737767  156.103204  78.462761
  9649.763  9649.800  0.500  0.688165  104.702391  156.073954  78.426752
  9650.065  9650.100  0.500  0.688557  104.723937  156.121605  78.419927
  9650.363  9650.400  0.500  0.688845  104.743512  156.155746  78.414491
  9650.669  9650.700  0.500  0.689243  104.760764  156.180400  78.395679
  9650.974  9651.000  0.500  0.689589  104.825019  156.285891  78.421487
  9651.260  9651.300  0.500  0.689973  104.850613  156.301081  78.399037
  9651.566  9651.600  0.500  0.690342  104.853479  156.318754  78.378970
  9651.868  9651.900  0.500  0.690831  104.853217  156.327185  78.344864
  9652.173  9652.200  0.500  0.691389  104.852962  156.331537  78.303294
  9652.467  9652.500  0.500  0.691869  104.876532  156.371813  78.285942
  9652.769  9652.800  0.500  0.692401  104.849301  156.341215  78.228956
  9653.075  9653.100  0.500  0.692986  104.844468  156.332872  78.179065
  9653.377  9653.400  0.500  0.693634  104.843247  156.349843  78.136907
  9653.683  9653.700  0.500  0.694355  104.840290  156.353081  78.082209
  9653.985  9654.000  0.500  0.695063  104.833706  156.347400  78.024108
  9654.287  9654.300  0.500  0.695899  104.814104  156.306020  77.938267
  9654.589  9654.600  0.500  0.696729  104.801388  156.300649  77.870876
  9654.887  9654.900  0.500  0.697716  104.809517  156.310994  77.799254
  9655.193  9655.200  0.500  0.698772  104.801312  156.302260  77.712815
  9655.487  9655.500  0.500  0.699867  104.812204  156.319716  77.636382
  9655.797  9655.800  0.500  0.701134  104.767157  156.249090  77.503094
  9656.083  9656.100  0.500  0.702529  104.804168  156.308489  77.424421
  9656.405  9656.400  0.500  0.704184  104.766305  156.266372  77.275594
  9656.687  9656.700  0.500  0.705733  104.781003  156.285401  77.165387
  9656.993  9657.000  0.500  0.707671  104.763624  156.269683  77.008262
  9657.283  9657.300  0.500  0.709640  104.736732  156.239848  76.842068
  9657.594  9657.600  0.500  0.711982  104.755005  156.258326  76.671364
  9657.888  9657.900  0.500  0.714656  104.748993  156.241961  76.458631
  9658.190  9658.200  0.500  0.717700  104.712561  156.195401  76.203568
  9658.480  9658.500  0.500  0.721171  104.713757  156.216226  75.949617
  9658.790  9658.800  0.500  0.725613  104.709913  156.217787  75.613777
  9659.081  9659.100  0.500  0.730648  104.725886  156.244500  75.246870
  9659.379  9659.400  0.500  0.736886  104.709340  156.215786  74.765146
  9659.693  9659.700  0.500  0.745165  104.683503  156.187248  74.135204
  9659.983  9660.000  0.500  0.754850  104.681310  156.184012  73.419121
  9660.294  9660.300  0.500  0.768381  104.674651  156.179367  72.430281
  9660.596  9660.600  0.500  0.785793  104.657378  156.154883  71.168883
  9660.895  9660.900  0.500  0.808848  104.658396  156.164620  69.551165
  9661.201  9661.200  0.500  0.840082  104.659873  156.176461  67.417489
  9661.499  9661.500  0.500  0.879347  104.631956  156.131966  64.803186
  9661.794  9661.800  0.500  0.925599  104.626185  156.128660  61.872854
  9662.104  9662.100  0.500  0.979700  104.612881  156.120891  58.611484
  9662.399  9662.400  0.500  1.033990  104.614644  156.122411  55.514850
  9662.697  9662.700  0.500  1.085491  104.627202  156.137685  52.733314
  9663.004  9663.000  0.500  1.136122  104.608624  156.123588  50.125292
  9663.294  9663.300  0.500  1.178382  104.612644  156.136554  48.055119
  9663.593  9663.600  0.500  1.217306  104.611940  156.133221  46.219565
  9663.895  9663.900  0.500  1.253421  104.588869  156.106752  44.572595
  9664.194  9664.200  0.500  1.284545  104.592700  156.118761  43.209981
  9664.480  9664.500  0.500  1.311705  104.580718  156.104734  42.048447
  9664.795  9664.800  0.500  1.336721  104.561770  156.069497  41.000327
  9665.094  9665.100  0.500  1.356842  104.570255  156.099423  40.191313
  9665.388  9665.400  0.500  1.374780  104.536151  156.058159  39.466349
  9665.707  9665.700  0.500  1.390607  104.522122  156.036058  38.841145
  9666.002  9666.000  0.500  1.403546  104.496363  156.007956  38.334916
  9666.301  9666.300  0.500  1.415575  104.492437  155.988212  37.871765
  9666.603  9666.600  0.500  1.427341  104.461174  155.928215  37.414355
  9666.894  9666.900  0.500  1.438968  104.409907  155.872278  36.968600
  9667.201  9667.200  0.500  1.452682  104.320351  155.750914  36.436690
  9667.508  9667.500  0.500  1.467439  104.256545  155.664197  35.882933
  9667.798  9667.800  0.500  1.483082  104.230261  155.615227  35.314899
  9668.093  9668.100  0.500  1.499301  104.237846  155.648509  34.754150
  9668.400  9668.400  0.500  1.516016  104.278621  155.710518  34.191678
  9668.691  9668.700  0.500  1.531870  104.368495  155.837062  33.681249
  9668.994  9669.000  0.500  1.547402  104.407921  155.892498  33.173945
  9669.284  9669.300  0.500  1.562247  104.392037  155.877833  32.682041
  9669.591  9669.600  0.500  1.576627  104.392651  155.864528  32.212690
  9669.890  9669.900  0.500  1.590145  104.403287  155.873130  31.781913
  9670.201  9670.200  0.500  1.603313  104.412262  155.905538  31.372690
  9670.496  9670.500  0.500  1.615273  104.399292  155.902557  30.999106
  9670.799  9670.800  0.500  1.626130  104.388829  155.913361  30.666474
  9671.106  9671.100  0.500  1.635622  104.401401  155.929167  30.379845
  9671.406  9671.400  0.500  1.643305  104.376244  155.905604  30.142798
  9671.701  9671.700  0.500  1.648484  104.370365  155.878731  29.981901
  9672.008  9672.000  0.500  1.650939  104.384099  155.893989  29.911326
  9672.307  9672.300  0.500  1.650045  104.343646  155.831642  29.926115
  9672.598  9672.600  0.500  1.645647  104.343482  155.843889  30.060379
  9672.901  9672.900  0.500  1.637424  104.345022  155.844966  30.308778
  9673.196  9673.200  0.500  1.626235  104.338671  155.836212  30.648090
  9673.491  9673.500  0.500  1.612764  104.325909  155.838020  31.064117
  9673.802  9673.800  0.500  1.596623  104.324136  155.845960  31.571187
  9674.093  9674.100  0.500  1.580229  104.321327  155.836985  32.091182
  9674.393  9674.400  0.500  1.562931  104.286477  155.796029  32.642557
  9674.696  9674.700  0.500  1.546076  104.284543  155.789430  33.196005
  9674.991  9675.000  0.500  1.531007  104.282458  155.801334  33.702585
  9675.294  9675.300  0.500  1.517494  104.274228  155.783786  34.157256
  9675.598  9675.600  0.500  1.506072  104.271660  155.776842  34.548090
  9675.889  9675.900  0.500  1.496836  104.291625  155.817840  34.877834
  9676.200  9676.200  0.500  1.488902  104.265417  155.790178  35.149426
  9676.508  9676.500  0.500  1.482750  104.247619  155.778599  35.363706
  9676.791  9676.800  0.500  1.478092  104.237617  155.755768  35.523597
  9677.103  9677.100  0.500  1.474002  104.252860  155.780696  35.674905
  9677.394  9677.400  0.500  1.470853  104.230430  155.756874  35.781926
  9677.697  9677.700  0.500  1.468485  104.198658  155.717218  35.857629
  9677.997  9678.000  0.500  1.466659  104.202358  155.720709  35.923980
  9678.296  9678.300  0.500  1.465419  104.208814  155.737188  35.972348
  9678.584  9678.600  0.500  1.464773  104.197996  155.724952  35.992782
  9678.887  9678.900  0.500  1.464448  104.189192  155.732836  36.006300
  9679.187  9679.200  0.500  1.464100  104.193162  155.730665  36.018334
  9679.478  9679.500  0.500  1.463779  104.203120  155.720218  36.027470
  9679.790  9679.800  0.500  1.463099  104.185395  155.703579  36.048137
  9680.093  9680.100  0.500  1.461894  104.177211  155.703430  36.091551
  9680.389  9680.400  0.500  1.460086  104.147631  155.662882  36.147458
  9680.697  9680.700  0.500  1.457415  104.153081  155.651739  36.241551
  9681.000  9681.000  0.500  1.454123  104.139093  155.656866  36.362239
  9681.292  9681.300  0.500  1.450356  104.150472  155.689065  36.507017
  9681.612  9681.600  0.500  1.445810  104.152662  155.693054  36.674318
  9681.903  9681.900  0.500  1.441095  104.122476  155.661252  36.840108
  9682.215  9682.200  0.500  1.435747  104.115754  155.637593  37.032039
  9682.487  9682.500  0.500  1.430377  104.102226  155.633848  37.230525
  9682.815  9682.800  0.500  1.424064  104.079977  155.620380  37.463049
  9683.054  9683.100  0.500  1.419692  104.082576  155.589360  37.619718
  9683.362  9683.400  0.500  1.414257  104.309059  155.921514  37.905493
  9683.621  9683.600  0.500  1.410008  104.333530  155.949778  38.073804
  9684.658  9684.590  0.500  1.397550  104.282454  155.903432  38.539636
  9685.550  9685.590  0.500  1.392320  104.271426  155.907038  38.742598
  9686.600  9686.610  0.500  1.390221  104.259660  155.904623  38.823402
  9687.625  9687.660  0.500  1.391222  104.236615  155.894345  38.782024
  9688.696  9688.720  0.500  1.395492  104.214485  155.874705  38.611917
  9689.771  9689.800  0.500  1.402835  104.190831  155.869825  38.328206
  9690.870  9690.900  0.500  1.412635  104.166787  155.823198  37.943061
  9691.990  9692.020  0.500  1.424614  104.127543  155.763649  37.476955
  9693.147  9693.160  0.500  1.437778  104.105096  155.747816  36.983059
  9694.288  9694.310  0.500  1.451006  104.111363  155.757403  36.499339
  9695.474  9695.490  0.500  1.464218  104.104577  155.773742  36.024038
  9696.664  9696.680  0.500  1.475713  104.052518  155.706057  35.596837
  9697.883  9697.900  0.500  1.484388  104.034685  155.708026  35.289818
  9699.110  9699.130  0.500  1.490602  104.009702  155.705896  35.070733
  9700.374  9700.380  0.500  1.494202  103.991661  155.695858  34.942439
  9701.639  9701.650  0.500  1.494357  103.976176  155.695173  34.936894
  9702.932  9702.940  0.500  1.490235  103.920283  155.634480  35.067522
  9704.230  9704.250  0.500  1.481667  103.908445  155.628755  35.367967
  9705.561  9705.580  0.500  1.471016  103.875067  155.589125  35.737591
  9706.917  9706.930  0.500  1.462229  103.838085  155.553299  36.044703
  9708.297  9708.300  0.500  1.455575  103.778042  155.463617  36.264394
  9709.678  9709.680  0.500  1.451056  103.404169  154.917274  36.300650
  9711.087  9711.090  0.500  1.449253  102.654988  153.812268  36.106767
  9712.506  9712.510  0.500  1.451055  103.822627  155.584144  36.456930
  9713.945  9713.950  0.500  1.455666  103.767137  155.533517  36.277427
  9715.409  9715.410  0.500  1.460891  103.756175  155.538963  36.089608
  9716.894  9716.890  0.500  1.464548  103.723485  155.496739  35.948110
  9718.387  9718.390  0.500  1.465325  103.706768  155.501979  35.921405
  9719.906  9719.910  0.500  1.463615  103.692212  155.487745  35.979607
  9721.429  9721.450  0.500  1.461447  103.636183  155.436317  36.045770
  9722.997  9723.010  0.500  1.460033  103.610426  155.420344  36.093039
  9724.578  9724.580  0.500  1.459155  103.584740  155.399877  36.119987
  9726.176  9726.180  0.500  1.458582  103.588876  155.413774  36.143945
  9727.783  9727.790  0.500  1.459302  103.521751  155.347025  36.102411
  9729.419  9729.430  0.500  1.461648  103.500725  155.334290  36.014841
  9731.076  9731.080  0.500  1.465282  103.493625  155.345868  35.886883
  9732.762  9732.750  0.500  1.470251  103.488110  155.349174  35.709760
  9734.445  9734.440  0.500  1.476308  103.434146  155.281432  35.478635
  9736.145  9736.150  0.500  1.482511  103.418849  155.288322  35.260806
  9737.874  9737.880  0.500  1.487653  103.375876  155.256744  35.072831
  9739.632  9739.630  0.500  1.490629  103.351225  155.230596  34.962733
  9741.399  9741.390  0.500  1.490695  103.320920  155.191236  34.951544
  9743.175  9743.180  0.500  1.487172  103.289462  155.174069  35.071028
  9744.972  9744.980  0.500  1.479924  103.253333  155.141030  35.318641
  9746.807  9746.810  0.500  1.470074  103.213647  155.085458  35.655473
  9748.655  9748.650  0.500  1.459681  103.192614  155.092021  36.029485
  9750.508  9750.510  0.500  1.450812  103.188711  155.125394  36.358268
  9752.373  9752.390  0.500  1.444117  103.142932  155.081946  36.592247
  9754.293  9754.290  0.500  1.438877  103.123927  155.073247  36.782431
  9756.206  9756.210  0.500  1.434552  103.085410  155.028995  36.931341
  9758.144  9758.150  0.500  1.430333  103.007332  154.936512  37.065360
  9760.120  9760.110  0.500  1.425948  102.993479  154.943471  37.229923
  9762.092  9762.080  0.500  1.422485  102.950590  154.903460  37.349395
  9764.078  9764.080  0.500  1.421339  102.898605  154.843091  37.377660
  9766.085  9766.090  0.500  1.423055  102.866681  154.836528  37.312003
  9768.134  9768.120  0.500  1.427187  102.811077  154.758152  37.139326
  9770.188  9770.180  0.500  1.432382  102.757662  154.705655  36.934379
  9772.247  9772.250  0.500  1.437774  102.634915  154.563145  36.701899
  9774.349  9774.340  0.500  1.443349  101.123058  152.299153  35.963256
  9776.463  9776.450  0.500  1.449494  102.684098  154.671685  36.299729
  9778.571  9778.580  0.500  1.456265  102.620557  154.605528  36.039362
  9780.728  9780.720  0.500  1.462794  102.547375  154.530268  35.787401
  9782.896  9782.890  0.500  1.467640  102.362846  154.284715  35.557805
  9785.076  9785.080  0.500  1.469312  101.658460  153.252682  35.260956
  9787.282  9787.280  0.500  1.468308  102.506157  154.539188  35.592677
  9789.506  9789.500  0.500  1.465851  102.410607  154.422565  35.653300
  9791.756  9791.750  0.500  1.463075  102.077608  153.945331  35.641935
  9794.011  9794.010  0.500  1.460711  102.088234  153.991007  35.736895
  9796.305  9796.290  0.500  1.458588  102.386063  154.473483  35.925045
  9798.591  9798.590  0.500  1.455903  102.289712  154.353992  35.993776
  9800.920  9800.910  0.500  1.452266  102.204899  154.260057  36.102938
  9803.262  9803.250  0.500  1.447709  100.662720  151.966615  35.728615
  9805.610  9805.600  0.500  1.442706  102.192886  154.320748  36.464076
  9808.001  9807.980  0.500  1.437139  102.150259  154.282855  36.658635
  9810.388  9810.370  0.500  1.431560  102.087281  154.222572  36.849324
  9812.785  9812.790  0.500  1.425438  102.032096  154.163527  37.061386
  9815.233  9815.220  0.500  1.419075  101.978768  154.111660  37.285428
  9817.674  9817.670  0.500  1.413036  101.938563  154.081556  37.503939
  9820.167  9820.150  0.500  1.408251  101.849523  153.969678  37.656479
  9822.656  9822.640  0.500  1.406482  101.621195  153.657473  37.646630
  9825.164  9825.150  0.500  1.408539  101.756312  153.889113  37.625916
  9827.685  9827.670  0.500  1.413298  101.673756  153.786707  37.422372
  9830.241  9830.220  0.500  1.418406  101.452948  153.488845  37.159584
  9832.782  9832.790  0.500  1.422403  101.627973  153.777852  37.081063
  9835.370  9835.370  0.500  1.424713  101.135772  153.069205  36.824993
  9837.989  9837.980  0.500  1.425405  101.493316  153.660240  36.941629
  9840.609  9840.600  0.500  1.425053  101.469670  153.637887  36.949265
  9843.264  9843.250  0.500  1.424767  101.182483  153.229879  36.861660
  9845.916  9845.910  0.500  1.425094  101.313340  153.458254  36.904531
  9848.608  9848.590  0.500  1.425712  101.315543  153.488409  36.888995
  9851.288  9851.290  0.500  1.426317  101.268099  153.456025  36.858895
  9854.012  9854.010  0.500  1.427138  101.219778  153.429181  36.822224
  9856.763  9856.750  0.500  1.427899  101.157745  153.378271  36.781993
  9859.507  9859.500  0.500  1.428289  101.109939  153.353309  36.761660
  9862.294  9862.280  0.500  1.427801  101.060298  153.274054  36.760606
  9865.079  9865.070  0.500  1.426610  101.002274  153.203721  36.787522
  9867.903  9867.890  0.500  1.424982  100.941962  153.159962  36.836947
  9870.721  9870.720  0.500  1.422088  100.885267  153.102932  36.929924
  9873.587  9873.570  0.500  1.417916  100.836727  153.067259  37.075680
  9876.471  9876.450  0.500  1.412755  100.793298  153.040484  37.261028
  9879.344  9879.340  0.500  1.407189  100.713197  152.963159  37.450062
  9882.270  9882.250  0.500  1.401714  98.508265  149.645795  36.839020
  9885.172  9885.170  0.500  1.396387  100.413521  152.566827  37.758675
  9888.139  9888.120  0.500  1.391993  100.503360  152.748371  37.970108
  9891.095  9891.090  0.500  1.388752  100.440607  152.673452  38.074675
  9894.100  9894.070  0.500  1.386749  100.390273  152.635629  38.141560
  9897.089  9897.080  0.500  1.385854  100.328449  152.575878  38.160786
  9900.115  9900.100  0.500  1.386059  100.270457  152.527268  38.140801
  9903.159  9903.150  0.500  1.387138  100.223916  152.508568  38.095000
  9906.226  9906.210  0.500  1.388242  100.147499  152.425862  38.032310
  9909.296  9909.290  0.500  1.388999  100.093424  152.360768  37.987317
  9912.405  9912.390  0.500  1.389598  100.031527  152.308448  37.951519
  9915.512  9915.510  0.500  1.389575  99.969148  152.253356  37.938657
  9918.673  9918.650  0.500  1.389137  99.901558  152.174754  37.935693
  9921.826  9921.800  0.500  1.388589  99.830027  152.112818  37.941037
  9924.995  9924.980  0.500  1.388056  99.768883  152.040876  37.943330
  9928.174  9928.170  0.500  1.387468  99.661470  151.923006  37.936194
  9931.411  9931.390  0.500  1.386814  99.382278  151.541930  37.865817
  9934.637  9934.620  0.500  1.386026  99.261390  151.382735  37.855848
  9937.887  9937.870  0.500  1.384943  99.572731  151.905588  38.027749
  9941.160  9941.150  0.500  1.383656  99.483270  151.815271  38.054074
  9944.461  9944.440  0.500  1.382199  99.403644  151.723120  38.086435
  9947.768  9947.750  0.500  1.380450  99.321802  151.622178  38.127721
  9951.070  9951.070  0.500  1.378520  99.204212  151.482066  38.166100
  9954.429  9954.420  0.500  1.376198  96.829031  147.894550  37.348845
  9957.799  9957.790  0.500  1.373451  99.064263  151.359314  38.328957
  9961.180  9961.170  0.500  1.370078  99.013569  151.309710  38.445861
  9964.589  9964.580  0.500  1.366470  98.897548  151.167395  38.548539
  9968.018  9968.000  0.500  1.362881  97.879923  149.647772  38.298235
  9971.462  9971.450  0.500  1.359828  98.927416  151.298965  38.839194
  9974.934  9974.910  0.500  1.357554  98.832369  151.196800  38.901337
  9978.413  9978.390  0.500  1.355723  98.736228  151.078365  38.942083
  9981.903  9981.890  0.500  1.354375  98.568398  150.840234  38.933154
  9985.421  9985.410  0.500  1.352960  95.588733  146.316325  37.818963
  9988.964  9988.950  0.500  1.351512  98.468616  150.777988  39.028686
  9992.518  9992.500  0.500  1.349989  98.389848  150.716059  39.072093
  9996.091  9996.080  0.500  1.348902  98.247843  150.527167  39.065587
  9999.698  9999.680  0.500  1.348162  95.374214  146.172058  37.963409
  10003.307  10003.290  0.500  1.347378  98.289501  150.674122  39.163368
  10006.941  10006.920  0.500  1.346336  98.199567  150.580914  39.179923
  10010.599  10010.580  0.500  1.345381  98.079621  150.440303  39.180741
  10014.268  10014.250  0.500  1.344468  96.998325  148.812545  38.792218
  10017.944  10017.940  0.500  1.343566  98.069399  150.495384  39.266296
  10021.671  10021.650  0.500  1.342512  98.119466  150.607344  39.336946
  10025.397  10025.380  0.500  1.341479  98.061359  150.561830  39.365698
  10029.138  10029.120  0.500  1.340425  97.976195  150.488116  39.387901
  10032.904  10032.890  0.500  1.339000  97.843043  150.316491  39.399113
  10036.703  10036.680  0.500  1.337540  94.897617  145.826514  38.278071
  10040.497  10040.480  0.500  1.335670  97.833113  150.373489  39.545501
  10044.333  10044.310  0.500  1.333607  97.750375  150.290011  39.605166
  10048.167  10048.150  0.500  1.331188  97.658689  150.213344  39.680827
  10052.018  10052.010  0.500  1.328629  97.582402  150.125882  39.759366
  10055.911  10055.890  0.500  1.326011  97.483929  150.017388  39.834764
  10059.811  10059.790  0.500  1.323550  97.399698  149.927519  39.909021
  10063.736  10063.710  0.500  1.321224  97.315594  149.825329  39.974673
  10067.660  10067.650  0.500  1.319295  97.239153  149.761154  40.034694
  10071.636  10071.610  0.500  1.317387  97.152193  149.642439  40.079387
  10075.588  10075.580  0.500  1.315738  97.059449  149.555608  40.122219
  10079.597  10079.580  0.500  1.313962  96.977178  149.469599  40.170431
  10083.590  10083.590  0.500  1.312207  96.891311  149.376565  40.215949
  10087.658  10087.630  0.500  1.310355  96.609508  148.969912  40.180817
  10091.689  10091.680  0.500  1.308602  96.500924  148.840545  40.216335
  10095.786  10095.750  0.500  1.306958  96.596904  149.036675  40.335605
  10099.859  10099.840  0.500  1.305416  96.525264  148.972274  40.380367
  10103.984  10103.950  0.500  1.303842  96.439459  148.901427  40.424750
  10108.104  10108.080  0.500  1.302460  96.357770  148.820508  40.458671
  10112.258  10112.230  0.500  1.301027  96.269058  148.704435  40.485102
  10116.411  10116.390  0.500  1.299771  96.182048  148.623697  40.513968
  10120.599  10120.580  0.500  1.298432  96.092407  148.543255  40.546270
  10124.804  10124.780  0.500  1.297059  96.009124  148.440538  40.573930
  10129.025  10129.010  0.500  1.295625  95.915918  148.348120  40.606861
  10133.264  10133.250  0.500  1.294153  95.826189  148.246713  40.638874
  10137.533  10137.510  0.500  1.292509  95.712066  148.113611  40.669174
  10141.814  10141.790  0.500  1.290929  95.630762  148.035154  40.711917
  10146.121  10146.090  0.500  1.289105  95.538276  147.940983  40.760300
  10150.437  10150.410  0.500  1.287181  95.451920  147.843067  40.811779
  10154.787  10154.750  0.500  1.285208  95.356689  147.746881  40.865758
  10159.137  10159.110  0.500  1.283140  95.257264  147.637295  40.919987
  10163.522  10163.490  0.500  1.281006  95.165346  147.522217  40.975419
  10167.906  10167.880  0.500  1.279094  95.036638  147.370482  41.011630
  10172.335  10172.300  0.500  1.277160  94.975862  147.343660  41.083525
  10176.758  10176.730  0.500  1.275310  94.881093  147.245343  41.132140
  10181.235  10181.180  0.500  1.273427  94.780383  147.133573  41.178407
  10185.675  10185.650  0.500  1.271652  94.685556  147.024759  41.221051
  10190.156  10190.140  0.500  1.269604  94.587526  146.915450  41.274848
  10194.676  10194.650  0.500  1.267838  94.308496  146.527622  41.238637
  10199.209  10199.180  0.500  1.266051  94.394155  146.704886  41.362406
  10203.756  10203.730  0.500  1.264339  94.288816  146.588017  41.400276
  10208.324  10208.300  0.500  1.262531  94.174379  146.451236  41.436468
  10212.902  10212.880  0.500  1.260808  94.081565  146.360622  41.482236
  10217.519  10217.490  0.500  1.259143  93.981500  146.249198  41.519735
  10222.141  10222.110  0.500  1.257418  93.886894  146.136414  41.559332
  10226.786  10226.760  0.500  1.255807  93.747916  145.979806  41.581729
  10231.448  10231.420  0.500  1.254192  93.683517  145.923278  41.632810
  10236.110  10236.100  0.500  1.252579  93.574200  145.801584  41.665253
  10240.822  10240.800  0.500  1.250948  93.431725  145.619798  41.681226
  10245.534  10245.520  0.500  1.249319  93.385399  145.592169  41.741289
  10250.286  10250.260  0.500  1.247578  93.291365  145.461278  41.776411
  10255.039  10255.010  0.500  1.245858  93.184792  145.360643  41.819361
  10259.814  10259.790  0.500  1.244152  93.089269  145.259696  41.861681
  10264.621  10264.590  0.500  1.242386  92.982151  145.141846  41.901683
  10269.432  10269.400  0.500  1.240487  92.878909  145.013487  41.944172
  10274.258  10274.230  0.500  1.238648  92.767185  144.890893  41.985853
  10279.120  10279.090  0.500  1.236798  92.664486  144.786321  42.033236
  10283.996  10283.960  0.500  1.235004  92.576297  144.698462  42.083162
  10288.881  10288.850  0.500  1.233109  92.463174  144.575165  42.127079
  10293.799  10293.760  0.500  1.231234  92.358117  144.461437  42.172946
  10298.716  10298.690  0.500  1.229325  92.262407  144.339020  42.217703
  10303.662  10303.630  0.500  1.227537  92.153283  144.215630  42.257098
  10308.631  10308.600  0.500  1.225638  92.053889  144.127982  42.311694
  10313.623  10313.590  0.500  1.223837  91.938731  143.984002  42.345632
  10318.624  10318.590  0.500  1.222022  91.821195  143.848831  42.382709
  10323.645  10323.620  0.500  1.220200  91.519848  143.421187  42.333783
  10328.702  10328.660  0.500  1.218396  91.614440  143.613534  42.467091
  10333.751  10333.720  0.500  1.216534  91.505451  143.481848  42.507226
  10338.824  10338.800  0.500  1.214737  91.397938  143.345854  42.543341
  10343.938  10343.900  0.500  1.213064  91.286795  143.228379  42.579661
  10349.049  10349.020  0.500  1.211254  91.180633  143.108944  42.621205
  10354.192  10354.160  0.500  1.209379  91.072195  142.986816  42.664746
  10359.350  10359.320  0.500  1.207711  90.964601  142.864102  42.699316
  10364.532  10364.500  0.500  1.206006  90.836618  142.717413  42.728264
  10369.705  10369.690  0.500  1.204297  90.707782  142.548361  42.750662
  10374.945  10374.910  0.500  1.202532  90.593658  142.410518  42.784743
  10380.175  10380.140  0.500  1.200741  90.474969  142.285104  42.823716
  10385.416  10385.390  0.500  1.198883  90.364453  142.152318  42.863300
  10390.689  10390.660  0.500  1.197176  90.250248  142.020875  42.896847
  10395.974  10395.950  0.500  1.195347  90.141516  141.890849  42.936002
  10401.291  10401.260  0.500  1.193470  90.033874  141.755553  42.975680
  10406.619  10406.590  0.500  1.191699  89.915398  141.628907  43.013399
  10411.967  10411.940  0.500  1.189898  89.807653  141.509393  43.054549
  10417.348  10417.310  0.500  1.188149  89.697052  141.385487  43.092167
  10422.721  10422.690  0.500  1.186245  89.581224  141.260329  43.136049
  10428.128  10428.100  0.500  1.184401  89.460975  141.113043  43.170634
  10433.550  10433.520  0.500  1.182529  89.359726  140.994044  43.215036
  10439.006  10438.970  0.500  1.180684  89.246986  140.860759  43.253908
  10444.459  10444.430  0.500  1.178922  89.125526  140.711436  43.284256
  10449.941  10449.910  0.500  1.176972  89.019678  140.577960  43.327603
  10455.443  10455.410  0.500  1.175108  88.899691  140.445210  43.367443
  10460.946  10460.930  0.500  1.173402  88.790368  140.323187  43.403772
  10466.498  10466.470  0.500  1.171420  88.672243  140.178229  43.444971
  10472.051  10472.020  0.500  1.169683  88.551170  140.045652  43.479300
  10477.615  10477.600  0.500  1.167849  88.424357  139.903750  43.514999
  10483.237  10483.200  0.500  1.166021  88.309452  139.756093  43.548624
  10488.842  10488.810  0.500  1.164240  88.208983  139.638501  43.589513
  10494.467  10494.450  0.500  1.162457  88.089697  139.504277  43.625329
  10500.127  10500.100  0.500  1.160655  87.966526  139.361081  43.659168
  10505.802  10505.770  0.500  1.158828  87.840277  139.226967  43.696910
  10511.479  10511.460  0.500  1.156973  87.649851  138.956556  43.693009
