# XDI/1.0 BlueSky/1.10.0 BMM/2023-1.0-py310-tiled
# Beamline.name: BMM (06BM) -- Beamline for Materials Measurement (NIST)
# Beamline.xray_source: NSLS-II three-pole wiggler
# Beamline.collimation: paraboloid mirror, 5 nm Rh on 30 nm Pt
# Beamline.focusing: not in use
# Beamline.harmonic_rejection: flat mirror, Pt stripe, pitch = 7.0 mrad relative to beam
# Beamline.software: Bluesky 1.10.0, Ophyd 1.7.0, DataBroker 2.0.0b13, Python 3.10.8, 2023-1.0-py310-tiled
# Detector.I0: 10 cm N2
# Detector.I1: 25 cm N2
# Detector.I2: 25 cm N2
# Element.symbol: Zn
# Element.edge: K
# Element.reference: Zn
# Element.reference_material: Zn foil
# Facility.name: NSLS-II
# Facility.energy: 3.0
# Facility.current: 400.0
# Facility.mode: top-off
# Facility.GUP: 123456
# Facility.SAF: 301027
# Facility.cycle: 2023-2
# Mono.name: Si(111)
# Mono.d_spacing: 3.1351860
# Mono.encoder_resolution: 0.0000050 deg/ct
# Mono.angle_offset: 16.0754326 deg
# Mono.scan_mode: pseudo channel cut
# Mono.scan_type: step
# Mono.direction: forward in energy
# Sample.name: ZnFe2O4
# Sample.prep: powder in PEG pellet
# Sample.x: 116.329 mm
# Sample.y: 114.126 mm
# Sample.SDD_position: 205.000 mm
# Scan.experimenters: Bruce Ravel
# Scan.edge_energy: 9658.6
# Scan.start_time: 2023-05-07T09:05:35
# Scan.end_time: 2023-05-07T09:13:41
# Scan.transient_id: 74860
# Scan.uid: 4b370d7e-7a7f-4a5b-bacc-e2c9a3359a73
# Scan.plot_hint: ln(I0/It)  --  ln($5/$6)
# Column.1: energy eV
# Column.2: requested_energy eV
# Column.3: measurement_time seconds
# Column.4: xmu 
# Column.5: I0 nA
# Column.6: It nA
# Column.7: Ir nA
# ///////////
# sample courtesy Martin Stennett, University of Sheffield
# -----------
# energy  requested_energy  measurement_time  xmu  I0  It  Ir
  9458.611  9458.600  0.500  1.312331  86.114026  23.181193  12.803860
  9468.615  9468.600  0.500  1.306784  85.708493  23.200360  12.837016
  9478.633  9478.600  0.500  1.301271  85.376348  23.238209  12.882448
  9488.633  9488.600  0.500  1.296038  85.073341  23.277243  12.930149
  9498.647  9498.600  0.500  1.290462  84.806926  23.334097  12.983351
  9508.609  9508.600  0.500  1.285019  84.557020  23.392315  13.039359
  9518.616  9518.600  0.500  1.279410  84.207181  23.426564  13.080841
  9528.612  9528.600  0.500  1.274049  83.830664  23.447175  13.116152
  9538.607  9538.600  0.500  1.268641  83.699177  23.537338  13.190311
  9548.623  9548.600  0.500  1.263166  83.372235  23.574110  13.232430
  9558.661  9558.600  0.500  1.257889  83.058059  23.609532  13.276528
  9568.669  9568.600  0.500  1.252699  82.778070  23.652400  13.321287
  9578.655  9578.600  0.500  1.247434  82.455540  23.684612  13.359760
  9588.618  9588.600  0.500  1.242245  82.236191  23.744500  13.414615
  9598.662  9598.600  0.500  1.237331  81.938601  23.775113  13.454334
  9608.621  9608.600  0.500  1.232350  81.620412  23.801047  13.486667
  9618.620  9618.600  0.500  1.227514  81.261545  23.811265  13.505986
  9628.624  9628.600  0.500  1.222965  81.030642  23.851858  13.536599
  9630.595  9630.600  0.500  1.222014  81.006987  23.867586  13.545148
  9632.591  9632.600  0.500  1.221366  80.892176  23.849212  13.534330
  9634.587  9634.600  0.500  1.220579  80.666803  23.801478  13.506934
  9636.584  9636.600  0.500  1.219611  80.825030  23.871266  13.541367
  9638.582  9638.600  0.500  1.219056  80.759799  23.865236  13.535351
  9640.577  9640.600  0.500  1.218432  80.711419  23.865832  13.530909
  9642.581  9642.600  0.500  1.217973  80.628582  23.852288  13.515187
  9644.577  9644.600  0.500  1.217672  80.554808  23.837639  13.495159
  9646.583  9646.600  0.500  1.217305  80.472962  23.822159  13.470271
  9648.577  9648.600  0.500  1.217423  80.280211  23.762291  13.413537
  9648.866  9648.900  0.500  1.217448  80.247078  23.751895  13.403055
  9649.164  9649.200  0.500  1.217541  80.256392  23.752445  13.400980
  9649.458  9649.500  0.500  1.217569  80.281517  23.759221  13.399186
  9649.767  9649.800  0.500  1.217613  80.337380  23.774697  13.405026
  9650.065  9650.100  0.500  1.217676  80.335699  23.772715  13.396155
  9650.379  9650.400  0.500  1.217760  80.313321  23.764079  13.386794
  9650.677  9650.700  0.500  1.217817  80.352442  23.774301  13.384521
  9650.978  9651.000  0.500  1.218046  80.323874  23.760415  13.374779
  9651.272  9651.300  0.500  1.218077  80.330420  23.761622  13.365250
  9651.582  9651.600  0.500  1.218297  80.325501  23.754922  13.355150
  9651.876  9651.900  0.500  1.218378  80.286632  23.741505  13.340395
  9652.182  9652.200  0.500  1.218615  80.263993  23.729196  13.326274
  9652.483  9652.500  0.500  1.218769  80.315692  23.740828  13.323783
  9652.785  9652.800  0.500  1.219048  80.271261  23.721066  13.304886
  9653.079  9653.100  0.500  1.219360  80.273414  23.714305  13.290577
  9653.381  9653.400  0.500  1.219581  80.291971  23.714536  13.278190
  9653.675  9653.700  0.500  1.219803  80.241459  23.694358  13.255805
  9653.981  9654.000  0.500  1.220280  80.258932  23.688222  13.241696
  9654.283  9654.300  0.500  1.220433  80.245839  23.680727  13.220258
  9654.577  9654.600  0.500  1.220776  80.268664  23.679342  13.206086
  9654.883  9654.900  0.500  1.221152  80.225169  23.657611  13.177003
  9655.181  9655.200  0.500  1.221507  80.220380  23.647814  13.154823
  9655.475  9655.500  0.500  1.222133  80.216293  23.631820  13.126540
  9655.785  9655.800  0.500  1.222607  80.202641  23.616595  13.094053
  9656.075  9656.100  0.500  1.223272  80.228122  23.608390  13.065192
  9656.393  9656.400  0.500  1.224073  80.204962  23.582687  13.021281
  9656.683  9656.700  0.500  1.224808  80.183204  23.558957  12.978965
  9656.993  9657.000  0.500  1.225628  80.178798  23.538346  12.932009
  9657.287  9657.300  0.500  1.226696  80.154504  23.506100  12.874889
  9657.594  9657.600  0.500  1.227687  80.146374  23.480438  12.815297
  9657.900  9657.900  0.500  1.229010  80.180409  23.459355  12.746952
  9658.190  9658.200  0.500  1.230288  80.167252  23.425536  12.666278
  9658.500  9658.500  0.500  1.232183  80.173012  23.382878  12.565290
  9658.794  9658.800  0.500  1.234181  80.165317  23.333965  12.441993
  9659.093  9659.100  0.500  1.236559  80.154244  23.275317  12.292690
  9659.395  9659.400  0.500  1.239666  80.129380  23.195930  12.094248
  9659.689  9659.700  0.500  1.243629  80.100414  23.095829  11.843946
  9659.983  9660.000  0.500  1.248735  80.090248  22.975278  11.519878
  9660.290  9660.300  0.500  1.255472  80.079411  22.817923  11.087053
  9660.584  9660.600  0.500  1.263271  80.070124  22.638041  10.581317
  9660.887  9660.900  0.500  1.272132  80.033068  22.427946  9.997350
  9661.189  9661.200  0.500  1.282031  80.075683  22.218847  9.395873
  9661.491  9661.500  0.500  1.292229  80.053810  21.987401  8.791900
  9661.802  9661.800  0.500  1.302706  80.047574  21.756564  8.240827
  9662.104  9662.100  0.500  1.313137  80.054220  21.532580  7.771848
  9662.399  9662.400  0.500  1.323809  80.054064  21.303956  7.366696
  9662.701  9662.700  0.500  1.335688  80.055295  21.052722  6.994130
  9663.004  9663.000  0.500  1.347851  80.035848  20.793159  6.667218
  9663.306  9663.300  0.500  1.361132  80.026380  20.516397  6.373589
  9663.597  9663.600  0.500  1.375233  79.931255  20.205081  6.108673
  9663.891  9663.900  0.500  1.392620  80.000358  19.873971  5.864415
  9664.186  9664.200  0.500  1.415847  80.020171  19.422484  5.611683
  9664.497  9664.500  0.500  1.447859  79.964749  18.797565  5.334177
  9664.795  9664.800  0.500  1.489607  79.965921  18.029221  5.040984
  9665.086  9665.100  0.500  1.541099  79.930807  17.116841  4.725373
  9665.392  9665.400  0.500  1.602946  80.000117  16.104238  4.395416
  9665.695  9665.700  0.500  1.671992  80.153990  15.058722  4.066251
  9665.994  9666.000  0.500  1.745399  80.095146  13.982632  3.730438
  9666.309  9666.300  0.500  1.812941  80.053828  13.062669  3.437711
  9666.611  9666.600  0.500  1.863801  80.021992  12.409969  3.217220
  9666.906  9666.900  0.500  1.891788  80.023338  12.067679  3.076438
  9667.201  9667.200  0.500  1.894493  80.005221  12.032353  3.014057
  9667.500  9667.500  0.500  1.877251  79.994144  12.239912  3.014283
  9667.794  9667.800  0.500  1.848037  80.070816  12.614849  3.055969
  9668.089  9668.100  0.500  1.816849  80.121154  13.022663  3.106012
  9668.396  9668.400  0.500  1.790972  80.142845  13.367669  3.140267
  9668.691  9668.700  0.500  1.775697  80.164351  13.577069  3.145014
  9669.002  9669.000  0.500  1.769714  80.154973  13.656943  3.121875
  9669.301  9669.300  0.500  1.770992  80.132056  13.635606  3.077114
  9669.587  9669.600  0.500  1.777027  80.101053  13.548318  3.022822
  9669.903  9669.900  0.500  1.786275  80.112931  13.425585  2.961611
  9670.206  9670.200  0.500  1.796850  80.084784  13.279692  2.901889
  9670.513  9670.500  0.500  1.807903  80.057004  13.129161  2.846713
  9670.807  9670.800  0.500  1.816696  80.046189  13.012467  2.805859
  9671.106  9671.100  0.500  1.822039  80.054464  12.944458  2.783985
  9671.401  9671.400  0.500  1.822133  79.967540  12.929193  2.781993
  9671.705  9671.700  0.500  1.816463  80.051650  13.016388  2.813414
  9672.008  9672.000  0.500  1.806240  80.029736  13.146537  2.866032
  9672.295  9672.300  0.500  1.794358  80.013534  13.300986  2.933962
  9672.594  9672.600  0.500  1.783396  80.028547  13.450107  3.008439
  9672.889  9672.900  0.500  1.775413  79.970776  13.548120  3.080243
  9673.196  9673.200  0.500  1.771795  79.990939  13.600666  3.144371
  9673.511  9673.500  0.500  1.773655  79.955246  13.569323  3.192598
  9673.798  9673.800  0.500  1.780272  79.932536  13.476005  3.220406
  9674.102  9674.100  0.500  1.791166  79.955170  13.333778  3.234132
  9674.405  9674.400  0.500  1.805128  79.978949  13.152816  3.233278
  9674.704  9674.700  0.500  1.819515  79.956182  12.961244  3.222765
  9675.011  9675.000  0.500  1.831221  79.935951  12.807163  3.214828
  9675.303  9675.300  0.500  1.838376  79.899363  12.710038  3.214805
  9675.598  9675.600  0.500  1.839389  79.880685  12.694200  3.230976
  9675.901  9675.900  0.500  1.834027  79.864464  12.759853  3.263834
  9676.200  9676.200  0.500  1.823480  79.881246  12.897853  3.312501
  9676.496  9676.500  0.500  1.810183  79.837451  13.063343  3.366688
  9676.791  9676.800  0.500  1.795946  79.863240  13.254930  3.424299
  9677.090  9677.100  0.500  1.782827  79.853242  13.428291  3.475389
  9677.394  9677.400  0.500  1.770988  79.915281  13.598766  3.523386
  9677.701  9677.700  0.500  1.761661  79.861757  13.716999  3.554966
  9678.001  9678.000  0.500  1.754344  79.842326  13.814370  3.582249
  9678.304  9678.300  0.500  1.748207  79.730445  13.879932  3.599252
  9678.604  9678.600  0.500  1.742393  79.787855  13.970926  3.624685
  9678.911  9678.900  0.500  1.736419  79.769967  14.051488  3.647351
  9679.203  9679.200  0.500  1.730714  79.775606  14.132878  3.673685
  9679.502  9679.500  0.500  1.725309  79.766066  14.207772  3.699163
  9679.802  9679.800  0.500  1.720930  79.755065  14.268161  3.724965
  9680.101  9680.100  0.500  1.717162  79.737923  14.318936  3.750475
  9680.405  9680.400  0.500  1.714673  79.727784  14.352795  3.774464
  9680.693  9680.700  0.500  1.712563  79.716592  14.381104  3.798060
  9680.996  9681.000  0.500  1.710405  79.739548  14.416319  3.827609
  9681.296  9681.300  0.500  1.706786  79.693918  14.460302  3.859628
  9681.596  9681.600  0.500  1.701865  79.661372  14.525704  3.898685
  9681.891  9681.900  0.500  1.694534  79.625115  14.625922  3.945968
  9682.203  9682.200  0.500  1.685016  79.649017  14.770233  4.007762
  9682.507  9682.500  0.500  1.674563  79.630570  14.921976  4.071602
  9682.807  9682.800  0.500  1.663516  79.613762  15.084556  4.135016
  9683.098  9683.100  0.500  1.653014  79.607050  15.242516  4.195127
  9683.402  9683.400  0.500  1.643139  79.577817  15.388124  4.251357
  9683.605  9683.600  0.500  1.637059  79.583993  15.483174  4.287376
  9684.605  9684.590  0.500  1.612631  79.528176  15.854929  4.416310
  9685.590  9685.590  0.500  1.594882  79.483115  16.129712  4.502769
  9686.624  9686.610  0.500  1.587352  79.492198  16.253474  4.535177
  9687.682  9687.660  0.500  1.592442  79.419159  16.156098  4.489501
  9688.724  9688.720  0.500  1.598107  79.378185  16.056538  4.431518
  9689.807  9689.800  0.500  1.594762  79.397869  16.114344  4.404772
  9690.919  9690.900  0.500  1.588030  79.386328  16.220832  4.382935
  9692.043  9692.020  0.500  1.580949  79.272503  16.312669  4.352369
  9693.188  9693.160  0.500  1.575895  79.240119  16.388631  4.314303
  9694.320  9694.310  0.500  1.576945  79.214075  16.366046  4.254114
  9695.506  9695.490  0.500  1.586404  79.164059  16.201743  4.160992
  9696.709  9696.680  0.500  1.601165  79.110334  15.953505  4.058812
  9697.919  9697.900  0.500  1.610382  79.067974  15.798673  3.991848
  9699.139  9699.130  0.500  1.609522  79.085811  15.815837  3.980141
  9700.403  9700.380  0.500  1.603395  78.999337  15.895631  3.994666
  9701.668  9701.650  0.500  1.599943  78.947584  15.940156  4.017577
  9702.953  9702.940  0.500  1.597534  78.898569  15.968683  4.053510
  9704.267  9704.250  0.500  1.594936  78.867771  16.003974  4.105285
  9705.598  9705.580  0.500  1.596025  78.838589  15.980639  4.138717
  9706.949  9706.930  0.500  1.601737  78.776865  15.877178  4.141349
  9708.309  9708.300  0.500  1.609027  78.660890  15.738644  4.125829
  9709.706  9709.680  0.500  1.615345  77.591626  15.426925  4.055605
  9711.104  9711.090  0.500  1.620746  78.710617  15.565110  4.088446
  9712.514  9712.510  0.500  1.625709  78.690630  15.484121  4.052569
  9713.969  9713.950  0.500  1.630336  78.639194  15.402568  4.010071
  9715.437  9715.410  0.500  1.634804  78.596149  15.325506  3.971771
  9716.898  9716.890  0.500  1.640730  78.536730  15.223434  3.937864
  9718.399  9718.390  0.500  1.646791  78.512733  15.126827  3.916153
  9719.926  9719.910  0.500  1.652399  78.427226  15.025849  3.897990
  9721.461  9721.450  0.500  1.660717  78.457508  14.907132  3.874094
  9723.013  9723.010  0.500  1.672623  78.379787  14.716115  3.827892
  9724.594  9724.580  0.500  1.684197  78.351968  14.541611  3.785702
  9726.193  9726.180  0.500  1.687566  78.326725  14.488038  3.771293
  9727.791  9727.790  0.500  1.683343  78.195023  14.524872  3.774941
  9729.444  9729.430  0.500  1.678496  78.162561  14.589399  3.778730
  9731.088  9731.080  0.500  1.677368  78.157933  14.604993  3.766820
  9732.750  9732.750  0.500  1.677728  78.095558  14.588092  3.740250
  9734.457  9734.440  0.500  1.677539  78.071343  14.586313  3.717240
  9736.165  9736.150  0.500  1.671800  78.007111  14.658204  3.713526
  9737.882  9737.880  0.500  1.656758  77.986347  14.876389  3.754286
  9739.648  9739.630  0.500  1.635918  77.927769  15.178266  3.822418
  9741.391  9741.390  0.500  1.615816  77.911120  15.483150  3.907376
  9743.187  9743.180  0.500  1.600255  77.839231  15.711466  3.986944
  9744.993  9744.980  0.500  1.589173  77.823651  15.883366  4.064801
  9746.824  9746.810  0.500  1.583464  77.740135  15.957158  4.125271
  9748.667  9748.650  0.500  1.581714  77.694738  15.975779  4.170308
  9750.532  9750.510  0.500  1.583809  77.644808  15.932100  4.192631
  9752.402  9752.390  0.500  1.587950  77.590629  15.855185  4.195622
  9754.310  9754.290  0.500  1.594768  77.537471  15.736659  4.183950
  9756.226  9756.210  0.500  1.603221  77.479723  15.592577  4.162166
  9758.160  9758.150  0.500  1.612296  77.391190  15.434060  4.137138
  9760.128  9760.110  0.500  1.619168  77.324783  15.315213  4.121548
  9762.092  9762.080  0.500  1.622777  77.270414  15.249313  4.114514
  9764.090  9764.080  0.500  1.623329  77.191067  15.225242  4.107497
  9766.109  9766.090  0.500  1.621903  77.137696  15.236424  4.097149
  9768.138  9768.120  0.500  1.619627  77.110483  15.265754  4.086815
  9770.200  9770.180  0.500  1.615509  77.007413  15.308255  4.075291
  9772.272  9772.250  0.500  1.609722  76.791227  15.353890  4.064439
  9774.357  9774.340  0.500  1.603326  76.365086  15.366648  4.044875
  9776.463  9776.450  0.500  1.597313  76.967150  15.581203  4.076545
  9778.624  9778.580  0.500  1.591327  76.969567  15.675251  4.070622
  9780.720  9780.720  0.500  1.586216  76.780317  15.716828  4.058089
  9782.912  9782.890  0.500  1.580148  76.214392  15.695947  4.037286
  9785.151  9785.080  0.500  1.575512  76.673989  15.863969  4.077916
  9787.332  9787.280  0.500  1.571877  76.667314  15.920357  4.098986
  9789.511  9789.500  0.500  1.571502  76.590612  15.910390  4.108017
  9791.736  9791.750  0.500  1.575656  75.745192  15.669540  4.056608
  9793.999  9794.010  0.500  1.582821  76.782485  15.770722  4.091728
  9796.267  9796.290  0.500  1.591419  76.709334  15.620818  4.060819
  9798.579  9798.590  0.500  1.600949  76.604773  15.451573  4.028708
  9800.907  9800.910  0.500  1.610530  76.397031  15.262730  3.994008
  9803.246  9803.250  0.500  1.618679  75.914174  15.043169  3.956326
  9805.593  9805.600  0.500  1.622044  76.601676  15.128419  3.998572
  9807.980  9807.980  0.500  1.620150  76.519726  15.140876  4.023340
  9810.371  9810.370  0.500  1.614410  76.466964  15.217545  4.067662
  9812.789  9812.790  0.500  1.606735  76.415396  15.324442  4.122457
  9815.212  9815.220  0.500  1.599413  76.341814  15.422197  4.174687
  9817.679  9817.670  0.500  1.592882  76.265237  15.507677  4.220331
  9820.154  9820.150  0.500  1.586913  75.826832  15.510838  4.237444
  9822.640  9822.640  0.500  1.580870  76.141554  15.669619  4.281969
  9825.143  9825.150  0.500  1.574387  76.061251  15.754909  4.290872
  9827.672  9827.670  0.500  1.568561  75.837840  15.800422  4.280994
  9830.208  9830.220  0.500  1.563855  75.893150  15.886533  4.283783
  9832.794  9832.790  0.500  1.560282  75.910881  15.947121  4.284894
  9835.361  9835.370  0.500  1.559921  75.368123  15.838805  4.248283
  9837.972  9837.980  0.500  1.563121  75.673591  15.852197  4.250711
  9840.600  9840.600  0.500  1.566708  75.707183  15.802446  4.238562
  9843.251  9843.250  0.500  1.567667  75.210282  15.683685  4.207367
  9845.904  9845.910  0.500  1.565304  75.593488  15.800882  4.235310
  9848.595  9848.590  0.500  1.561288  75.528892  15.850916  4.245305
  9851.288  9851.290  0.500  1.556936  75.481967  15.910160  4.258595
  9854.016  9854.010  0.500  1.554594  75.396313  15.929363  4.259826
  9856.754  9856.750  0.500  1.555404  75.333033  15.903112  4.248643
  9859.507  9859.500  0.500  1.557822  75.252600  15.847759  4.234292
  9862.277  9862.280  0.500  1.559796  75.122135  15.789096  4.220179
  9865.079  9865.070  0.500  1.561012  75.106193  15.766558  4.219306
  9867.891  9867.890  0.500  1.560812  75.061339  15.760294  4.226168
  9870.717  9870.720  0.500  1.558031  74.931044  15.776752  4.244038
  9873.574  9873.570  0.500  1.552664  74.916001  15.858463  4.284517
  9876.462  9876.450  0.500  1.546337  74.871356  15.949609  4.333058
  9879.348  9879.340  0.500  1.540782  74.666518  15.994576  4.368904
  9882.248  9882.250  0.500  1.537029  73.448252  15.792760  4.336830
  9885.180  9885.170  0.500  1.533638  74.646287  16.104893  4.444648
  9888.126  9888.120  0.500  1.530593  74.568823  16.137230  4.470904
  9891.099  9891.090  0.500  1.528854  74.488269  16.147860  4.486122
  9894.083  9894.070  0.500  1.529588  74.432966  16.124031  4.487414
  9897.085  9897.080  0.500  1.532290  74.379926  16.069060  4.473375
  9900.119  9900.100  0.500  1.535067  74.315788  16.010681  4.454830
  9903.146  9903.150  0.500  1.536374  74.204944  15.965931  4.437201
  9906.214  9906.210  0.500  1.535967  74.142587  15.959004  4.429671
  9909.296  9909.290  0.500  1.534123  74.040463  15.966443  4.427984
  9912.392  9912.390  0.500  1.531731  73.977250  15.991015  4.433665
  9915.512  9915.510  0.500  1.529148  73.863885  16.007793  4.438269
  9918.656  9918.650  0.500  1.526217  73.693907  16.017833  4.441111
  9921.818  9921.800  0.500  1.523366  73.651863  16.054402  4.453003
  9924.986  9924.980  0.500  1.521281  73.582994  16.072880  4.461732
  9928.191  9928.170  0.500  1.520371  73.481178  16.065248  4.460985
  9931.407  9931.390  0.500  1.519668  72.252840  15.807808  4.391954
  9934.646  9934.620  0.500  1.518551  73.552029  16.110033  4.480106
  9937.878  9937.870  0.500  1.515987  73.496306  16.139146  4.492115
  9941.168  9941.150  0.500  1.511991  73.383858  16.178976  4.508858
  9944.452  9944.440  0.500  1.507157  73.334431  16.246432  4.534581
  9947.777  9947.750  0.500  1.501966  73.221699  16.305874  4.559108
  9951.087  9951.070  0.500  1.498036  73.114676  16.346157  4.579059
  9954.446  9954.420  0.500  1.495145  71.887505  16.118338  4.525142
  9957.795  9957.790  0.500  1.493155  72.785719  16.352242  4.605357
  9961.193  9961.170  0.500  1.492325  72.755947  16.359116  4.621096
  9964.598  9964.580  0.500  1.491701  72.645400  16.344467  4.633098
  9968.018  9968.000  0.500  1.491081  70.698927  15.916386  4.528380
  9971.462  9971.450  0.500  1.489731  72.522868  16.349075  4.663047
  9974.925  9974.910  0.500  1.488307  72.466278  16.359588  4.675151
  9978.400  9978.390  0.500  1.487033  72.398142  16.365046  4.684537
  9981.924  9981.890  0.500  1.485845  72.111133  16.319538  4.677496
  9985.426  9985.410  0.500  1.484671  71.936164  16.299069  4.677220
  9988.968  9988.950  0.500  1.483321  72.067260  16.350833  4.699210
  9992.518  9992.500  0.500  1.481112  71.981860  16.367575  4.710106
  9996.087  9996.080  0.500  1.477725  71.833701  16.389294  4.719693
  9999.702  9999.680  0.500  1.473863  71.043784  16.271797  4.689677
  10003.325  10003.290  0.500  1.469645  71.683881  16.487805  4.754722
  10006.945  10006.920  0.500  1.466021  71.622049  16.533385  4.772103
  10010.612  10010.580  0.500  1.463936  71.605466  16.564069  4.786202
  10014.268  10014.250  0.500  1.463025  69.923623  16.189759  4.681464
  10017.966  10017.940  0.500  1.462467  71.250652  16.506209  4.776479
  10021.667  10021.650  0.500  1.461292  71.200699  16.514040  4.782466
  10025.405  10025.380  0.500  1.459332  71.105526  16.524317  4.790792
  10029.151  10029.120  0.500  1.456982  70.973097  16.532350  4.798160
  10032.917  10032.890  0.500  1.454863  70.741640  16.513395  4.797949
  10036.703  10036.680  0.500  1.453118  69.991823  16.366899  4.762187
  10040.514  10040.480  0.500  1.451386  70.784467  16.580941  4.833752
  10044.341  10044.310  0.500  1.449259  70.659891  16.586999  4.845480
  10048.163  10048.150  0.500  1.446813  70.550469  16.601875  4.861066
  10052.031  10052.010  0.500  1.444763  70.502202  16.624549  4.879985
  10055.906  10055.890  0.500  1.443155  70.463887  16.642269  4.897693
  10059.828  10059.790  0.500  1.441630  70.307022  16.630549  4.905156
  10063.728  10063.710  0.500  1.440033  70.190451  16.629511  4.915841
  10067.682  10067.650  0.500  1.437549  70.100178  16.649437  4.930316
  10071.623  10071.610  0.500  1.434799  69.935613  16.656093  4.939819
  10075.601  10075.580  0.500  1.431819  69.853813  16.686266  4.956381
  10079.597  10079.580  0.500  1.428959  69.717389  16.701375  4.968710
  10083.599  10083.590  0.500  1.425911  69.556196  16.713622  4.981844
  10087.645  10087.630  0.500  1.422741  68.501177  16.512368  4.929098
  10091.681  10091.680  0.500  1.420040  69.474394  16.792271  5.020635
  10095.764  10095.750  0.500  1.417574  69.398806  16.815413  5.035327
  10099.863  10099.840  0.500  1.415532  69.304902  16.826987  5.046390
  10103.958  10103.950  0.500  1.413525  69.202357  16.835833  5.056873
  10108.086  10108.080  0.500  1.411307  69.055046  16.837306  5.062435
  10112.236  10112.230  0.500  1.409140  68.897254  16.835269  5.068735
  10116.407  10116.390  0.500  1.406683  68.797532  16.852265  5.079972
  10120.590  10120.580  0.500  1.404349  68.711222  16.870454  5.091253
  10124.795  10124.780  0.500  1.402630  68.631164  16.879784  5.100515
  10129.030  10129.010  0.500  1.400859  68.513733  16.880778  5.107219
  10133.264  10133.250  0.500  1.398832  68.385455  16.883354  5.115583
  10137.524  10137.510  0.500  1.396966  68.274689  16.887492  5.123771
  10141.809  10141.790  0.500  1.394745  68.177733  16.901005  5.135335
  10146.099  10146.090  0.500  1.392091  68.113935  16.930057  5.153493
  10150.419  10150.410  0.500  1.389370  68.036334  16.956845  5.170487
  10154.765  10154.750  0.500  1.386539  67.880140  16.965880  5.183649
  10159.133  10159.110  0.500  1.383958  67.812389  16.992753  5.202159
  10163.509  10163.490  0.500  1.381568  67.721460  17.010568  5.217238
  10167.897  10167.880  0.500  1.379226  67.598073  17.019398  5.229361
  10172.326  10172.300  0.500  1.377200  67.505431  17.030542  5.242689
  10176.740  10176.730  0.500  1.375218  67.384611  17.033778  5.252350
  10181.195  10181.180  0.500  1.373024  67.209646  17.026877  5.260019
  10185.662  10185.650  0.500  1.370780  67.122119  17.042901  5.274226
  10190.165  10190.140  0.500  1.368135  66.993493  17.055295  5.286216
  10194.671  10194.650  0.500  1.365484  66.641252  17.010660  5.282942
  10199.205  10199.180  0.500  1.362837  66.778880  17.090970  5.314808
  10203.751  10203.730  0.500  1.360387  66.679468  17.107377  5.329968
  10208.320  10208.300  0.500  1.358150  66.538327  17.109395  5.338539
  10212.906  10212.880  0.500  1.355960  66.443351  17.122439  5.351491
  10217.510  10217.490  0.500  1.354073  66.340180  17.128132  5.362048
  10222.137  10222.110  0.500  1.352012  66.211615  17.130210  5.371081
  10226.768  10226.760  0.500  1.349678  66.092595  17.139386  5.381531
  10231.439  10231.420  0.500  1.347218  65.999383  17.157368  5.394948
  10236.115  10236.100  0.500  1.344864  65.875031  17.165404  5.405606
  10240.817  10240.800  0.500  1.342047  65.746508  17.180227  5.418401
  10245.547  10245.520  0.500  1.339123  65.650260  17.205315  5.434175
  10250.277  10250.260  0.500  1.336485  65.492505  17.209310  5.444338
  10255.034  10255.010  0.500  1.333708  65.384262  17.228651  5.459405
  10259.809  10259.790  0.500  1.331153  65.318367  17.255313  5.475689
  10264.607  10264.590  0.500  1.328549  65.191794  17.266783  5.489479
  10269.423  10269.400  0.500  1.326011  65.067395  17.277624  5.501761
  10274.249  10274.230  0.500  1.323320  64.910201  17.282335  5.513200
  10279.120  10279.090  0.500  1.320886  64.788350  17.291934  5.526205
  10283.982  10283.960  0.500  1.318541  64.682418  17.304193  5.538096
  10288.872  10288.850  0.500  1.316133  64.561345  17.313431  5.550005
  10293.785  10293.760  0.500  1.313836  64.428461  17.317532  5.562204
  10298.726  10298.690  0.500  1.311440  64.362394  17.341283  5.580420
  10303.662  10303.630  0.500  1.308900  64.220978  17.347174  5.590619
  10308.626  10308.600  0.500  1.306544  64.100582  17.355503  5.603763
  10313.618  10313.590  0.500  1.304102  64.022043  17.376609  5.619313
  10318.633  10318.590  0.500  1.301441  64.052999  17.431341  5.645957
  10323.649  10323.620  0.500  1.298999  63.963929  17.449665  5.661468
  10328.693  10328.660  0.500  1.296546  63.823645  17.454163  5.672534
  10333.751  10333.720  0.500  1.294085  63.682302  17.458415  5.684049
  10338.814  10338.800  0.500  1.291706  63.554157  17.464775  5.695483
  10343.943  10343.900  0.500  1.289240  63.439998  17.476458  5.708277
  10349.054  10349.020  0.500  1.286679  63.324634  17.489414  5.721987
  10354.188  10354.160  0.500  1.284131  63.195805  17.498355  5.733459
  10359.360  10359.320  0.500  1.281529  63.074730  17.510329  5.747509
  10364.523  10364.500  0.500  1.278821  63.000209  17.537069  5.764787
  10369.719  10369.690  0.500  1.276158  62.815018  17.532150  5.771803
  10374.945  10374.910  0.500  1.273694  62.669134  17.534575  5.781576
  10380.161  10380.140  0.500  1.271122  62.543483  17.544487  5.794918
  10385.420  10385.390  0.500  1.268677  62.432535  17.556243  5.809174
  10390.694  10390.660  0.500  1.265996  62.328248  17.573967  5.825278
  10395.974  10395.950  0.500  1.263483  62.137577  17.564285  5.830761
  10401.296  10401.260  0.500  1.260923  62.057453  17.586613  5.849170
  10406.615  10406.590  0.500  1.258582  61.904328  17.584335  5.856833
  10411.962  10411.940  0.500  1.256090  61.795865  17.597322  5.871229
  10417.330  10417.310  0.500  1.253394  61.633525  17.598462  5.881476
  10422.707  10422.690  0.500  1.250800  61.478056  17.599680  5.892507
  10428.128  10428.100  0.500  1.247966  61.324482  17.605532  5.904982
  10433.550  10433.520  0.500  1.245330  61.248120  17.630014  5.922550
  10438.992  10438.970  0.500  1.242660  61.114907  17.638712  5.935578
  10444.459  10444.430  0.500  1.239952  60.987025  17.649536  5.949625
  10449.941  10449.910  0.500  1.237382  60.882723  17.664677  5.963665
  10455.429  10455.410  0.500  1.234743  60.701283  17.658578  5.973296
  10460.960  10460.930  0.500  1.232021  60.589792  17.674183  5.987942
  10466.493  10466.470  0.500  1.229589  60.453305  17.677312  5.999090
  10472.042  10472.020  0.500  1.227027  60.348483  17.691929  6.014352
  10477.634  10477.600  0.500  1.224373  60.223303  17.702156  6.028666
  10483.223  10483.200  0.500  1.221528  60.097938  17.715627  6.041697
  10488.827  10488.810  0.500  1.218990  59.955280  17.718495  6.053534
  10494.486  10494.450  0.500  1.216471  59.855041  17.733483  6.068595
  10500.122  10500.100  0.500  1.213746  59.689541  17.732711  6.077297
  10505.783  10505.770  0.500  1.211254  59.567027  17.740473  6.089773
  10511.489  10511.460  0.500  1.208511  59.398440  17.738842  6.100441
