# XDI/1.0 BlueSky/1.10.0 BMM/2023-1.0-py310-tiled
# Beamline.name: BMM (06BM) -- Beamline for Materials Measurement (NIST)
# Beamline.xray_source: NSLS-II three-pole wiggler
# Beamline.collimation: paraboloid mirror, 5 nm Rh on 30 nm Pt
# Beamline.focusing: not in use
# Beamline.harmonic_rejection: flat mirror, Pt stripe, pitch = 7.0 mrad relative to beam
# Beamline.software: Bluesky 1.10.0, Ophyd 1.7.0, DataBroker 2.0.0b13, Python 3.10.8, 2023-1.0-py310-tiled
# Detector.I0: 10 cm N2
# Detector.I1: 25 cm N2
# Detector.I2: 25 cm N2
# Element.symbol: Lu
# Element.edge: L1
# Element.reference: Lu
# Element.reference_material: Lu2O3
# Facility.name: NSLS-II
# Facility.energy: 3.0
# Facility.current: 400.1
# Facility.mode: top-off
# Facility.GUP: 301027
# Facility.SAF: 310583
# Facility.cycle: 2023-2
# Mono.name: Si(111)
# Mono.d_spacing: 3.1351860
# Mono.encoder_resolution: 0.0000050 deg/ct
# Mono.angle_offset: 16.0754326 deg
# Mono.scan_mode: pseudo channel cut
# Mono.scan_type: step
# Mono.direction: forward in energy
# Sample.name: Lu2O3
# Sample.prep: PEG pellet
# Sample.x: 109.138 mm
# Sample.y: 153.150 mm
# Sample.SDD_position: 205.000 mm
# Scan.experimenters: Bruce Ravel
# Scan.edge_energy: 10870.4
# Scan.start_time: 2023-05-28T18:25:21
# Scan.end_time: 2023-05-28T18:33:05
# Scan.transient_id: 78910
# Scan.uid: d0d62fac-d52a-40db-b25b-639b955d80d8
# Scan.plot_hint: ln(It/Ir)  --  ln($6/$7)
# Column.1: energy eV
# Column.2: requested_energy eV
# Column.3: measurement_time seconds
# Column.4: xmu 
# Column.5: I0 nA
# Column.6: It nA
# Column.7: Ir nA
# ///////////
# sample courtesy Martin Stennett, University of Sheffield
# -----------
# energy  requested_energy  measurement_time  xmu  I0  It  Ir
  10670.415  10670.400  0.500  1.909557  84.567875  135.337146  20.049648
  10680.479  10680.400  0.500  1.906914  84.383673  135.124642  20.071148
  10690.487  10690.400  0.500  1.902687  84.238019  134.964265  20.132261
  10700.485  10700.400  0.500  1.898432  84.061968  134.745146  20.185266
  10710.442  10710.400  0.500  1.895193  83.866421  134.504718  20.214624
  10720.463  10720.400  0.500  1.892323  83.695051  134.315971  20.244271
  10730.393  10730.400  0.500  1.888271  83.479471  134.052356  20.286569
  10740.381  10740.400  0.500  1.885215  83.260732  133.765013  20.305059
  10750.404  10750.400  0.500  1.882590  83.103778  133.598376  20.333056
  10760.411  10760.400  0.500  1.879552  82.937503  133.381047  20.361742
  10770.406  10770.400  0.500  1.875833  82.758123  133.160118  20.403764
  10780.415  10780.400  0.500  1.871798  82.577555  132.948699  20.453725
  10790.423  10790.400  0.500  1.867606  82.392096  132.730282  20.505909
  10800.430  10800.400  0.500  1.863466  82.060627  132.271407  20.519797
  10810.440  10810.400  0.500  1.859309  82.072898  132.344899  20.616716
  10820.434  10820.400  0.500  1.856766  81.881227  132.116643  20.633558
  10830.467  10830.400  0.500  1.855468  81.397858  131.406236  20.549263
  10840.422  10840.400  0.500  1.853676  81.524605  131.675155  20.628264
  10842.380  10842.400  0.500  1.853151  81.492882  131.649478  20.635077
  10844.375  10844.400  0.500  1.852820  81.429915  131.567303  20.629020
  10846.376  10846.400  0.500  1.852394  81.374488  131.487135  20.625223
  10848.368  10848.400  0.500  1.851801  81.104712  131.055469  20.569721
  10850.375  10850.400  0.500  1.851687  81.324928  131.421774  20.629554
  10852.368  10852.400  0.500  1.851295  81.272897  131.358250  20.627662
  10854.372  10854.400  0.500  1.851156  81.015334  130.948301  20.566159
  10856.366  10856.400  0.500  1.850946  81.189519  131.257685  20.619062
  10858.366  10858.400  0.500  1.850851  81.176898  131.256869  20.620901
  10860.372  10860.400  0.500  1.851193  80.939709  130.873276  20.553616
  10860.654  10860.700  0.500  1.851194  80.864439  130.743032  20.533123
  10860.961  10861.000  0.500  1.851214  80.806460  130.653198  20.518620
  10861.253  10861.300  0.500  1.851095  80.813391  130.664512  20.522841
  10861.555  10861.600  0.500  1.851003  80.875209  130.763886  20.540321
  10861.857  10861.900  0.500  1.851109  80.963716  130.910321  20.561143
  10862.164  10862.200  0.500  1.851346  81.004438  130.989457  20.568703
  10862.451  10862.500  0.500  1.851419  81.064350  131.081995  20.581734
  10862.778  10862.800  0.500  1.851596  81.070945  131.094458  20.580041
  10863.065  10863.100  0.500  1.851707  81.068076  131.097912  20.578299
  10863.362  10863.400  0.500  1.851781  81.060357  131.088909  20.575372
  10863.659  10863.700  0.500  1.851905  81.058005  131.089132  20.572854
  10863.962  10864.000  0.500  1.852157  81.047367  131.073781  20.565266
  10864.264  10864.300  0.500  1.852192  81.037707  131.051282  20.561010
  10864.571  10864.600  0.500  1.852292  81.041638  131.062941  20.560788
  10864.873  10864.900  0.500  1.852646  81.024911  131.038283  20.549634
  10865.170  10865.200  0.500  1.852748  81.011604  131.026527  20.545702
  10865.468  10865.500  0.500  1.852862  81.014119  131.029075  20.543758
  10865.765  10865.800  0.500  1.853228  80.992636  130.993228  20.530622
  10866.062  10866.100  0.500  1.853473  80.990700  130.993397  20.525613
  10866.380  10866.400  0.500  1.853730  80.972405  130.969188  20.516555
  10866.677  10866.700  0.500  1.854011  80.969197  130.970631  20.511023
  10866.969  10867.000  0.500  1.854282  80.968221  130.959427  20.503700
  10867.276  10867.300  0.500  1.854561  80.927071  130.884567  20.486269
  10867.569  10867.600  0.500  1.855159  80.865590  130.800340  20.460847
  10867.871  10867.900  0.500  1.855610  80.766306  130.638582  20.426321
  10868.179  10868.200  0.500  1.856073  80.665999  130.486021  20.393020
  10868.476  10868.500  0.500  1.856480  80.614245  130.398505  20.371049
  10868.778  10868.800  0.500  1.856914  80.872673  130.814384  20.427161
  10869.081  10869.100  0.500  1.857565  80.954362  130.955451  20.435888
  10869.378  10869.400  0.500  1.858385  81.044815  131.098385  20.441415
  10869.681  10869.700  0.500  1.859187  81.106026  131.197466  20.440462
  10869.988  10870.000  0.500  1.860062  81.155691  131.285963  20.436365
  10870.296  10870.300  0.500  1.860989  81.162035  131.305152  20.420404
  10870.588  10870.600  0.500  1.862252  81.164371  131.299386  20.393752
  10870.896  10870.900  0.500  1.863471  81.159026  131.293397  20.367961
  10871.194  10871.200  0.500  1.864766  81.147690  131.293433  20.341623
  10871.491  10871.500  0.500  1.866317  81.143482  131.287379  20.309143
  10871.804  10871.800  0.500  1.868135  81.138525  131.278226  20.270852
  10872.101  10872.100  0.500  1.870180  81.132203  131.274385  20.228851
  10872.389  10872.400  0.500  1.872217  81.121009  131.249352  20.183839
  10872.696  10872.700  0.500  1.874731  81.111052  131.225262  20.129466
  10872.994  10873.000  0.500  1.877451  81.099633  131.208950  20.072280
  10873.292  10873.300  0.500  1.880302  81.089309  131.203458  20.014314
  10873.605  10873.600  0.500  1.883160  81.083507  131.186436  19.954601
  10873.902  10873.900  0.500  1.886087  81.075876  131.184455  19.895978
  10874.200  10874.200  0.500  1.888809  81.083790  131.197978  19.843935
  10874.498  10874.500  0.500  1.891718  81.062530  131.169708  19.782036
  10874.795  10874.800  0.500  1.894197  81.051562  131.147942  19.729769
  10875.088  10875.100  0.500  1.896770  81.022001  131.114590  19.674076
  10875.401  10875.400  0.500  1.899264  80.992760  131.062113  19.617203
  10875.699  10875.700  0.500  1.901511  80.952362  131.007436  19.565008
  10875.976  10876.000  0.500  1.903799  80.909591  130.936441  19.509723
  10876.289  10876.300  0.500  1.906155  80.901511  130.915754  19.460744
  10876.587  10876.600  0.500  1.908655  80.877722  130.882692  19.407245
  10876.884  10876.900  0.500  1.910961  80.858302  130.853481  19.358213
  10877.187  10877.200  0.500  1.913613  80.880250  130.903356  19.314311
  10877.490  10877.500  0.500  1.916337  80.888477  130.919782  19.264183
  10877.778  10877.800  0.500  1.919002  80.915343  130.954731  19.218041
  10878.081  10878.100  0.500  1.921819  80.943758  130.995819  19.169998
  10878.384  10878.400  0.500  1.924608  80.938027  130.984060  19.114883
  10878.687  10878.700  0.500  1.927471  80.933571  130.979708  19.059608
  10879.000  10879.000  0.500  1.930273  80.933750  130.981068  19.006481
  10879.303  10879.300  0.500  1.933149  80.933428  130.988988  18.953044
  10879.591  10879.600  0.500  1.935897  80.930572  130.985138  18.900475
  10879.894  10879.900  0.500  1.938890  80.920284  130.965692  18.841198
  10880.202  10880.200  0.500  1.941740  80.907414  130.955115  18.786042
  10880.495  10880.500  0.500  1.944668  80.904926  130.941990  18.729253
  10880.809  10880.800  0.500  1.947514  80.908564  130.955278  18.677919
  10881.117  10881.100  0.500  1.950831  80.894413  130.934794  18.613151
  10881.394  10881.400  0.500  1.953719  80.891253  130.937914  18.559916
  10881.708  10881.700  0.500  1.957286  80.868343  130.906018  18.489334
  10882.011  10882.000  0.500  1.960823  80.875471  130.919622  18.425961
  10882.299  10882.300  0.500  1.964499  80.862889  130.899119  18.355469
  10882.597  10882.600  0.500  1.968678  80.850062  130.882706  18.276632
  10882.916  10882.900  0.500  1.973332  80.860459  130.893946  18.193337
  10883.203  10883.200  0.500  1.977874  80.838121  130.867781  18.107271
  10883.502  10883.500  0.500  1.982866  80.831637  130.843335  18.013738
  10883.805  10883.800  0.500  1.987836  80.829186  130.845466  17.924732
  10884.103  10884.100  0.500  1.992893  80.820085  130.834593  17.832824
  10884.417  10884.400  0.500  1.998131  80.807093  130.826794  17.738602
  10884.715  10884.700  0.500  2.003136  80.805577  130.817896  17.648838
  10884.987  10885.000  0.500  2.007784  80.799168  130.804162  17.565152
  10885.286  10885.300  0.500  2.012157  80.798499  130.797154  17.487578
  10885.599  10885.600  0.500  2.016410  80.778413  130.783713  17.411569
  10885.887  10885.900  0.500  2.019908  80.779005  130.793107  17.352011
  10886.201  10886.200  0.500  2.023071  80.764599  130.775941  17.294957
  10886.505  10886.500  0.500  2.025666  80.761122  130.764264  17.248589
  10886.793  10886.800  0.500  2.027345  80.760571  130.758804  17.218937
  10887.091  10887.100  0.500  2.028787  80.743119  130.749612  17.192903
  10887.389  10887.400  0.500  2.029332  80.740800  130.733574  17.181439
  10887.683  10887.700  0.500  2.029567  80.746431  130.740736  17.178342
  10887.996  10888.000  0.500  2.029196  80.729935  130.722482  17.182307
  10888.300  10888.300  0.500  2.028433  80.731815  130.726347  17.195940
  10888.593  10888.600  0.500  2.027331  80.714910  130.707624  17.212434
  10888.892  10888.900  0.500  2.025952  80.711014  130.693728  17.234354
  10889.206  10889.200  0.500  2.024485  80.702497  130.687703  17.258861
  10889.494  10889.500  0.500  2.022968  80.700939  130.677434  17.283706
  10889.798  10889.800  0.500  2.021591  80.698238  130.671216  17.306691
  10890.117  10890.100  0.500  2.020010  80.695406  130.676137  17.334736
  10890.400  10890.400  0.500  2.018739  80.683880  130.663268  17.355066
  10890.703  10890.700  0.500  2.017814  80.687270  130.664770  17.371323
  10891.002  10891.000  0.500  2.017025  80.666532  130.644743  17.382371
  10891.306  10891.300  0.500  2.016261  80.665895  130.632405  17.394018
  10891.599  10891.600  0.500  2.016012  80.648178  130.616174  17.396189
  10891.918  10891.900  0.500  2.015678  80.647818  130.612952  17.401578
  10892.202  10892.200  0.500  2.015807  80.640097  130.604317  17.398178
  10892.505  10892.500  0.500  2.015964  80.631665  130.598805  17.394708
  10892.799  10892.800  0.500  2.016296  80.620765  130.580521  17.386508
  10893.092  10893.100  0.500  2.016642  80.615841  130.579623  17.380358
  10893.396  10893.400  0.500  2.017261  80.600533  130.554630  17.366292
  10893.711  10893.700  0.500  2.017498  80.598866  130.547448  17.361216
  10894.004  10894.000  0.500  2.018051  80.587425  130.529755  17.349264
  10894.298  10894.300  0.500  2.018334  80.580492  130.519391  17.342973
  10894.591  10894.600  0.500  2.018721  80.578690  130.530758  17.337787
  10894.890  10894.900  0.500  2.018891  80.566734  130.500482  17.330803
  10895.194  10895.200  0.500  2.019047  80.558456  130.493341  17.327163
  10895.395  10895.400  0.500  2.019083  80.556997  130.486610  17.325649
  10896.395  10896.390  0.500  2.018470  80.549648  130.475057  17.334738
  10897.405  10897.390  0.500  2.017083  80.518950  130.453976  17.355980
  10898.410  10898.410  0.500  2.014403  80.506999  130.437387  17.400358
  10899.467  10899.460  0.500  2.010228  80.491302  130.421608  17.471027
  10900.534  10900.520  0.500  2.005593  80.463595  130.374556  17.545868
  10901.622  10901.600  0.500  2.000301  80.440888  130.341614  17.634509
  10902.726  10902.700  0.500  1.995013  80.413948  130.310390  17.723766
  10903.841  10903.820  0.500  1.989922  80.397043  130.279095  17.809941
  10904.971  10904.960  0.500  1.984929  80.376501  130.257624  17.896143
  10906.117  10906.110  0.500  1.980218  80.353997  130.230174  17.976870
  10907.289  10907.290  0.500  1.975815  80.340245  130.221536  18.054986
  10908.477  10908.480  0.500  1.971667  80.313077  130.178181  18.124011
  10909.711  10909.700  0.500  1.967883  80.299353  130.155695  18.189573
  10910.946  10910.930  0.500  1.965078  80.272161  130.128916  18.236910
  10912.197  10912.180  0.500  1.963341  80.236673  130.086437  18.262654
  10913.468  10913.450  0.500  1.962331  80.215958  130.058513  18.277182
  10914.756  10914.740  0.500  1.962040  80.201713  130.033761  18.279023
  10916.064  10916.050  0.500  1.962019  80.138525  129.943819  18.266768
  10917.388  10917.380  0.500  1.962542  80.081432  129.864973  18.246140
  10918.744  10918.730  0.500  1.963333  80.110375  129.924746  18.240106
  10920.115  10920.100  0.500  1.964263  80.096797  129.909673  18.221025
  10921.482  10921.480  0.500  1.965102  80.080589  129.890688  18.203090
  10922.885  10922.890  0.500  1.965987  80.046412  129.854726  18.181947
  10924.309  10924.310  0.500  1.966901  80.023064  129.816894  18.160048
  10925.760  10925.750  0.500  1.967842  79.986529  129.771524  18.136624
  10927.237  10927.210  0.500  1.968845  79.965401  129.752208  18.115739
  10928.704  10928.690  0.500  1.969984  79.940548  129.717491  18.090275
  10930.202  10930.190  0.500  1.971735  79.917370  129.691276  18.054983
  10931.711  10931.710  0.500  1.973641  79.873492  129.618252  18.010455
  10933.263  10933.250  0.500  1.975583  79.849336  129.599088  17.972850
  10934.819  10934.810  0.500  1.977533  79.825918  129.585668  17.935993
  10936.392  10936.380  0.500  1.979358  79.791834  129.529548  17.895528
  10937.981  10937.980  0.500  1.981301  79.773843  129.506151  17.857563
  10939.586  10939.590  0.500  1.983163  79.733362  129.456711  17.817543
  10941.238  10941.230  0.500  1.984908  79.710472  129.420279  17.781480
  10942.896  10942.880  0.500  1.985694  79.682449  129.387637  17.763026
  10944.565  10944.550  0.500  1.985624  79.653424  129.357234  17.760086
  10946.260  10946.240  0.500  1.984895  79.623897  129.310863  17.766674
  10947.967  10947.950  0.500  1.983545  79.589656  129.271436  17.785253
  10949.684  10949.680  0.500  1.981627  79.528172  129.187458  17.807819
  10951.443  10951.430  0.500  1.978895  79.462761  129.085422  17.842426
  10953.203  10953.190  0.500  1.975432  79.483794  129.137567  17.911553
  10954.990  10954.980  0.500  1.971753  79.449525  129.088130  17.970691
  10956.787  10956.780  0.500  1.967844  79.416088  129.050966  18.035879
  10958.638  10958.610  0.500  1.964525  79.379825  129.002348  18.089023
  10960.457  10960.450  0.500  1.961977  79.348281  128.961451  18.129435
  10962.319  10962.310  0.500  1.960298  79.317777  128.927361  18.155089
  10964.187  10964.190  0.500  1.959386  79.279471  128.880061  18.164999
  10966.119  10966.090  0.500  1.958749  79.253894  128.841083  18.171063
  10968.014  10968.010  0.500  1.958403  79.215580  128.792860  18.170558
  10969.973  10969.950  0.500  1.958397  79.181418  128.752924  18.165021
  10971.911  10971.910  0.500  1.958277  79.164670  128.735718  18.164785
  10973.897  10973.880  0.500  1.958056  79.111484  128.651216  18.156861
  10975.900  10975.880  0.500  1.957324  79.068785  128.589813  18.161492
  10977.898  10977.890  0.500  1.956249  79.037896  128.569247  18.178126
  10979.934  10979.920  0.500  1.954808  78.944046  128.419601  18.183150
  10981.996  10981.980  0.500  1.953547  78.956324  128.457850  18.211516
  10984.065  10984.050  0.500  1.952186  78.936181  128.440033  18.233776
  10986.155  10986.140  0.500  1.951168  78.888314  128.378544  18.243613
  10988.257  10988.250  0.500  1.949888  78.863762  128.355247  18.263667
  10990.396  10990.380  0.500  1.949049  78.817612  128.288382  18.269482
  10992.541  10992.520  0.500  1.948207  78.772686  128.233381  18.277018
  10994.713  10994.690  0.500  1.947532  78.734987  128.184643  18.282413
  10996.897  10996.880  0.500  1.946790  78.692216  128.112015  18.285629
  10999.097  10999.080  0.500  1.946620  78.656296  128.075018  18.283457
  11001.319  11001.300  0.500  1.946896  78.618017  128.032657  18.272350
  11003.569  11003.550  0.500  1.947295  78.577111  127.982408  18.257892
  11005.809  11005.810  0.500  1.947769  78.540080  127.938777  18.243021
  11008.107  11008.090  0.500  1.948291  78.504479  127.895211  18.227298
  11010.407  11010.390  0.500  1.949312  78.454810  127.838213  18.200575
  11012.728  11012.710  0.500  1.950333  78.417496  127.775737  18.173124
  11015.035  11015.050  0.500  1.950896  78.306205  127.612786  18.139730
  11017.406  11017.400  0.500  1.950747  78.336751  127.680480  18.152064
  11019.794  11019.780  0.500  1.949718  78.292201  127.632811  18.163965
  11022.167  11022.170  0.500  1.948289  78.260621  127.591689  18.184079
  11024.605  11024.590  0.500  1.947238  78.442610  127.903814  18.247725
  11027.049  11027.020  0.500  1.945902  78.408916  127.852175  18.264736
  11029.473  11029.470  0.500  1.944571  78.384003  127.825031  18.285198
  11031.977  11031.950  0.500  1.943250  78.345863  127.781584  18.303137
  11034.450  11034.440  0.500  1.941769  78.301936  127.729053  18.322731
  11036.957  11036.950  0.500  1.939543  78.261861  127.685093  18.357241
  11039.475  11039.470  0.500  1.936980  78.215282  127.617689  18.394641
  11042.037  11042.020  0.500  1.934285  78.169188  127.553186  18.434947
  11044.616  11044.590  0.500  1.931590  78.127296  127.497250  18.476604
  11047.175  11047.170  0.500  1.928996  78.071344  127.428480  18.514596
  11049.809  11049.780  0.500  1.927002  78.023731  127.377453  18.544111
  11052.413  11052.400  0.500  1.925511  77.976214  127.311734  18.562215
  11055.044  11055.050  0.500  1.924865  77.936157  127.262024  18.566948
  11057.735  11057.710  0.500  1.924714  77.884995  127.198384  18.560460
  11060.412  11060.390  0.500  1.924815  77.763395  127.013500  18.531613
  11063.106  11063.090  0.500  1.924536  77.783108  127.061432  18.543786
  11065.833  11065.810  0.500  1.924263  77.732192  127.001997  18.540178
  11068.578  11068.550  0.500  1.923808  77.687948  126.939099  18.539418
  11071.302  11071.300  0.500  1.923062  77.643109  126.881553  18.544840
  11074.103  11074.080  0.500  1.922076  77.583980  126.799944  18.551194
  11076.883  11076.870  0.500  1.920921  77.463614  126.621186  18.546459
  11079.702  11079.690  0.500  1.919767  77.484773  126.670032  18.575040
  11082.539  11082.520  0.500  1.918561  77.431200  126.607503  18.588272
  11085.378  11085.370  0.500  1.917386  77.383789  126.545500  18.601004
  11088.249  11088.250  0.500  1.916216  77.334974  126.482695  18.613539
  11091.171  11091.140  0.500  1.914854  77.229253  126.330270  18.616457
  11094.051  11094.050  0.500  1.913337  77.222075  126.332218  18.644995
  11096.986  11096.970  0.500  1.912333  77.154056  126.223681  18.647701
  11099.923  11099.920  0.500  1.911338  77.106823  126.179264  18.659697
  11102.888  11102.890  0.500  1.910710  77.062360  126.124473  18.663296
  11105.897  11105.870  0.500  1.910369  76.910291  125.888746  18.634768
  11108.893  11108.880  0.500  1.909954  76.947908  125.965466  18.653878
  11111.905  11111.900  0.500  1.909703  76.832489  125.794787  18.633268
  11114.974  11114.950  0.500  1.909260  76.850355  125.843725  18.648778
  11118.017  11118.010  0.500  1.908567  76.767445  125.733588  18.645375
  11121.115  11121.090  0.500  1.907546  76.726536  125.673265  18.655475
  11124.210  11124.190  0.500  1.906408  76.678384  125.613687  18.667849
  11127.317  11127.310  0.500  1.904946  76.621159  125.548906  18.685532
  11130.464  11130.450  0.500  1.903184  76.567084  125.485001  18.708951
  11133.602  11133.600  0.500  1.901665  76.507194  125.404437  18.725360
  11136.812  11136.780  0.500  1.900118  76.452521  125.324443  18.742392
  11139.980  11139.970  0.500  1.898781  76.392559  125.248606  18.756102
  11143.199  11143.190  0.500  1.897018  76.337168  125.178331  18.778667
  11146.452  11146.420  0.500  1.895423  76.280061  125.096534  18.796351
  11149.675  11149.670  0.500  1.893879  76.218627  125.029432  18.815292
  11152.975  11152.950  0.500  1.892323  76.158917  124.960292  18.834173
  11156.261  11156.240  0.500  1.890629  76.106637  124.879148  18.853856
  11159.586  11159.550  0.500  1.889164  76.050283  124.807158  18.870604
  11162.871  11162.870  0.500  1.887612  75.989871  124.729194  18.888118
  11166.249  11166.220  0.500  1.886172  75.932221  124.650255  18.903358
  11169.603  11169.590  0.500  1.884692  75.867164  124.564973  18.918402
  11172.985  11172.970  0.500  1.883536  75.804155  124.476980  18.926913
  11176.403  11176.380  0.500  1.882734  75.746649  124.397398  18.929982
  11179.817  11179.800  0.500  1.882201  75.675886  124.312037  18.927077
  11183.276  11183.250  0.500  1.881566  75.614616  124.228840  18.926429
  11186.722  11186.710  0.500  1.880568  75.558259  124.150418  18.933367
  11190.202  11190.190  0.500  1.879588  75.490712  124.055079  18.937377
  11193.695  11193.690  0.500  1.878521  75.423349  123.964340  18.943721
  11197.229  11197.210  0.500  1.877225  75.358803  123.880248  18.955438
  11200.770  11200.750  0.500  1.875986  75.285025  123.779822  18.963538
  11204.325  11204.300  0.500  1.874650  75.221077  123.695934  18.976024
  11207.898  11207.880  0.500  1.873301  75.153336  123.604350  18.987575
  11211.506  11211.480  0.500  1.871929  75.087050  123.518597  19.000448
  11215.133  11215.090  0.500  1.870665  75.019754  123.425849  19.010207
  11218.746  11218.720  0.500  1.869519  74.951093  123.321986  19.015983
  11222.411  11222.380  0.500  1.868236  74.878501  123.232771  19.026616
  11226.072  11226.050  0.500  1.866892  74.814797  123.143771  19.038450
  11229.758  11229.740  0.500  1.865589  74.737056  123.040954  19.047354
  11233.474  11233.450  0.500  1.864038  74.657613  122.929902  19.059695
  11237.198  11237.180  0.500  1.862638  74.539988  122.756714  19.059521
  11240.952  11240.920  0.500  1.861763  72.515241  119.452468  18.562732
  11244.708  11244.690  0.500  1.859416  74.579661  122.870515  19.138758
  11248.522  11248.480  0.500  1.858141  74.471608  122.712669  19.138550
  11252.294  11252.280  0.500  1.856879  74.388551  122.601347  19.145331
  11256.152  11256.110  0.500  1.855690  74.308273  122.484885  19.149895
  11259.990  11259.950  0.500  1.854471  74.233932  122.386494  19.157861
  11263.858  11263.810  0.500  1.853060  74.151694  122.274424  19.167334
  11267.707  11267.690  0.500  1.851647  74.071546  122.169328  19.177954
  11271.609  11271.590  0.500  1.850317  73.995295  122.065468  19.187139
  11275.535  11275.510  0.500  1.848607  73.922866  121.954276  19.202469
  11279.464  11279.450  0.500  1.847080  73.845108  121.840054  19.213810
  11283.440  11283.410  0.500  1.845368  73.764849  121.738784  19.230728
  11287.403  11287.380  0.500  1.843768  73.683197  121.611812  19.241443
  11291.396  11291.380  0.500  1.842307  73.588886  121.484562  19.249406
  11295.413  11295.390  0.500  1.840804  73.469750  121.306190  19.250053
  11299.468  11299.430  0.500  1.839426  71.608679  118.265797  18.793455
  11303.514  11303.480  0.500  1.837786  73.427496  121.290216  19.305687
  11307.596  11307.550  0.500  1.836369  73.321104  121.142050  19.309461
  11311.653  11311.640  0.500  1.834834  73.221022  120.992368  19.315225
  11315.786  11315.750  0.500  1.833473  73.097102  120.812329  19.312752
  11319.922  11319.880  0.500  1.831950  72.687450  120.152067  19.236465
  11324.061  11324.030  0.500  1.830445  72.958172  120.625555  19.341374
  11328.236  11328.190  0.500  1.829602  72.697385  120.218043  19.292288
  11332.415  11332.380  0.500  1.828362  72.831765  120.463973  19.355740
  11336.630  11336.580  0.500  1.827339  72.650628  120.188513  19.331233
  11340.854  11340.810  0.500  1.825485  71.415063  118.164627  19.040979
  11345.081  11345.050  0.500  1.824884  72.437935  119.877751  19.328656
  11349.345  11349.310  0.500  1.823383  71.900483  118.998819  19.215749
  11353.629  11353.590  0.500  1.821925  71.749684  118.780867  19.208538
  11357.916  11357.890  0.500  1.822633  60.165514  99.620625  16.098657
  11362.252  11362.210  0.500  1.818373  72.794196  120.553034  19.564500
  11366.568  11366.550  0.500  1.816696  72.275860  119.719543  19.461853
  11370.938  11370.910  0.500  1.814692  72.235244  119.681415  19.494667
  11375.323  11375.290  0.500  1.813671  71.198613  117.981378  19.237385
  11379.700  11379.680  0.500  1.811419  72.252800  119.746992  19.569294
  11384.115  11384.100  0.500  1.809781  72.109612  119.530937  19.566025
  11388.549  11388.530  0.500  1.807901  71.623156  118.744975  19.473935
  11392.999  11392.980  0.500  1.807021  71.212618  118.090266  19.383614
  11397.480  11397.450  0.500  1.805019  71.766639  119.037267  19.578213
  11401.965  11401.940  0.500  1.803433  71.824910  119.156487  19.628923
  11406.459  11406.450  0.500  1.801862  71.704585  118.985493  19.631582
  11410.991  11410.980  0.500  1.800376  71.598577  118.812839  19.632255
  11415.543  11415.530  0.500  1.799114  71.372541  118.474400  19.601052
  11420.116  11420.100  0.500  1.797715  71.497621  118.695294  19.665092
  11424.687  11424.680  0.500  1.796522  71.399110  118.553777  19.665076
  11429.308  11429.290  0.500  1.795266  71.298169  118.410760  19.666052
  11433.914  11433.910  0.500  1.793804  71.205847  118.278499  19.672827
  11438.588  11438.560  0.500  1.792352  71.101572  118.144221  19.679035
  11443.231  11443.220  0.500  1.790639  71.004831  118.014722  19.691164
  11447.935  11447.900  0.500  1.788570  70.928561  117.904799  19.713572
  11452.608  11452.600  0.500  1.786677  70.837324  117.767166  19.727875
  11457.360  11457.320  0.500  1.784754  70.745039  117.645265  19.745385
  11462.081  11462.060  0.500  1.782767  70.649863  117.499188  19.760091
  11466.835  11466.810  0.500  1.780934  70.550427  117.352922  19.771700
  11471.604  11471.590  0.500  1.779178  70.431390  117.179203  19.777124
  11476.412  11476.390  0.500  1.777837  69.915625  116.358367  19.664952
  11481.218  11481.200  0.500  1.776163  70.430703  117.234469  19.846201
  11486.051  11486.030  0.500  1.774751  70.283889  117.004501  19.835264
  11490.917  11490.890  0.500  1.773279  70.183504  116.858657  19.839728
  11495.770  11495.760  0.500  1.771814  70.082341  116.717998  19.844889
  11500.679  11500.650  0.500  1.770249  69.987282  116.595458  19.855104
  11505.586  11505.560  0.500  1.768630  69.886090  116.449274  19.862350
  11510.521  11510.490  0.500  1.767174  69.793080  116.324354  19.869948
  11515.436  11515.430  0.500  1.765759  69.696379  116.182641  19.873850
  11520.420  11520.400  0.500  1.764019  69.607067  116.040169  19.884045
  11525.396  11525.390  0.500  1.762457  69.517009  115.922175  19.894875
  11530.435  11530.390  0.500  1.760627  69.418752  115.776838  19.906325
  11535.432  11535.420  0.500  1.758773  69.322540  115.649279  19.921297
  11540.502  11540.460  0.500  1.756982  69.206165  115.485970  19.928819
  11545.549  11545.520  0.500  1.755112  69.084931  115.297283  19.933511
  11550.623  11550.600  0.500  1.753131  68.954731  115.100023  19.938865
  11555.742  11555.700  0.500  1.751254  68.755372  114.795454  19.923461
  11560.854  11560.820  0.500  1.749496  68.312939  114.080232  19.834176
  11565.994  11565.960  0.500  1.747914  66.980558  111.878710  19.482205
  11571.132  11571.120  0.500  1.746095  67.350072  112.518798  19.629342
  11576.340  11576.300  0.500  1.744538  67.397642  112.618629  19.677372
  11581.511  11581.490  0.500  1.742936  67.255202  112.413401  19.673010
  11586.728  11586.710  0.500  1.741278  67.254191  112.425241  19.707723
  11591.956  11591.940  0.500  1.739855  67.106546  112.213116  19.698541
  11597.217  11597.190  0.500  1.738213  67.012149  112.078996  19.707340
  11602.495  11602.460  0.500  1.736581  66.984858  112.050099  19.734432
  11607.773  11607.750  0.500  1.735031  66.930323  111.984663  19.753501
  11613.096  11613.060  0.500  1.733532  66.811712  111.809386  19.752182
  11618.418  11618.390  0.500  1.731749  66.679304  111.622813  19.754396
  11623.780  11623.740  0.500  1.729861  66.595882  111.501340  19.770195
  11629.154  11629.110  0.500  1.728067  66.542765  111.432444  19.793457
  11634.514  11634.490  0.500  1.726097  66.474501  111.340032  19.816042
  11639.927  11639.900  0.500  1.724051  66.406416  111.256615  19.841742
  11645.357  11645.320  0.500  1.722033  66.338320  111.157015  19.864034
  11650.798  11650.770  0.500  1.720078  66.125998  110.810018  19.840784
  11656.256  11656.230  0.500  1.718244  66.132205  110.848705  19.884135
  11661.742  11661.710  0.500  1.716337  65.928338  110.533214  19.865384
  11667.252  11667.210  0.500  1.714805  65.905895  110.531375  19.895514
  11672.773  11672.730  0.500  1.712945  66.003994  110.721877  19.966920
  11678.311  11678.270  0.500  1.711248  65.765602  110.338345  19.931547
  11683.836  11683.820  0.500  1.709401  65.839357  110.489943  19.995816
  11689.450  11689.400  0.500  1.707715  65.763686  110.379791  20.009601
  11695.028  11695.000  0.500  1.706045  65.688434  110.269046  20.022923
  11700.647  11700.610  0.500  1.704472  65.604543  110.161693  20.034932
  11706.284  11706.250  0.500  1.702778  65.516582  110.039702  20.046672
  11711.932  11711.900  0.500  1.701125  65.441333  109.937577  20.061204
  11717.591  11717.570  0.500  1.699387  65.340018  109.796341  20.070273
  11723.304  11723.260  0.500  1.697549  65.226552  109.632701  20.077237
