# XDI/1.0 BlueSky/1.10.0 BMM/2023-1.0-py310-tiled
# Beamline.name: BMM (06BM) -- Beamline for Materials Measurement (NIST)
# Beamline.xray_source: NSLS-II three-pole wiggler
# Beamline.collimation: paraboloid mirror, 5 nm Rh on 30 nm Pt
# Beamline.focusing: not in use
# Beamline.harmonic_rejection: flat mirror, Si stripe, pitch = 7.0 mrad relative to beam
# Beamline.software: Bluesky 1.10.0, Ophyd 1.7.0, DataBroker 2.0.0b13, Python 3.10.8, 2023-1.0-py310-tiled
# Detector.I0: 10 cm N2
# Detector.I1: 25 cm N2
# Detector.I2: 25 cm N2
# Element.symbol: Nd
# Element.edge: L3
# Element.reference: Nd
# Element.reference_material: Nd2O3
# Facility.name: NSLS-II
# Facility.energy: 3.0
# Facility.current: 399.7
# Facility.mode: top-off
# Facility.GUP: 123456
# Facility.SAF: 301027
# Facility.cycle: 2023-2
# Mono.name: Si(111)
# Mono.d_spacing: 3.1351860
# Mono.encoder_resolution: 0.0000050 deg/ct
# Mono.angle_offset: 16.0754326 deg
# Mono.scan_mode: pseudo channel cut
# Mono.scan_type: step
# Mono.direction: forward in energy
# Sample.name: Nd2Ti2O7
# Sample.prep: Powder in PEG pellet
# Sample.x: 149.848 mm
# Sample.y: 114.690 mm
# Sample.SDD_position: 205.000 mm
# Scan.experimenters: Bruce Ravel
# Scan.edge_energy: 6207.9
# Scan.start_time: 2023-05-08T16:49:36
# Scan.end_time: 2023-05-08T16:55:18
# Scan.transient_id: 75417
# Scan.uid: 89f6c106-4035-4175-b5f3-956aafc9ea55
# Scan.plot_hint: ln(I0/It)  --  ln($5/$6)
# Column.1: energy eV
# Column.2: requested_energy eV
# Column.3: measurement_time seconds
# Column.4: xmu 
# Column.5: I0 nA
# Column.6: It nA
# Column.7: Ir nA
# ///////////
# sample courtesy Martin Stennett, University of Sheffield
# -----------
# energy  requested_energy  measurement_time  xmu  I0  It  Ir
  6007.905  6007.900  0.500  2.432882  148.099044  13.000652  1.812123
  6017.911  6017.900  0.500  2.418797  148.286920  13.201790  1.858055
  6027.913  6027.900  0.500  2.403820  148.521456  13.422190  1.907367
  6037.903  6037.900  0.500  2.389250  148.760760  13.641133  1.956935
  6047.914  6047.900  0.500  2.375033  148.995600  13.858299  2.007033
  6057.922  6057.900  0.500  2.360722  148.931244  14.051970  2.054153
  6067.910  6067.900  0.500  2.346655  148.933856  14.251294  2.103118
  6077.912  6077.900  0.500  2.332883  149.194605  14.474216  2.155625
  6087.907  6087.900  0.500  2.318719  149.358996  14.696862  2.208921
  6097.914  6097.900  0.500  2.304905  149.632712  14.928593  2.263392
  6107.908  6107.900  0.500  2.291268  149.838239  15.154358  2.318949
  6117.907  6117.900  0.500  2.277346  150.043250  15.387836  2.376371
  6127.883  6127.900  0.500  2.264119  150.751451  15.666329  2.439802
  6137.885  6137.900  0.500  2.250847  150.958224  15.897404  2.498328
  6147.886  6147.900  0.500  2.237076  151.153881  16.138738  2.558409
  6157.884  6157.900  0.500  2.223969  151.253803  16.362469  2.615881
  6167.890  6167.900  0.500  2.211107  151.361430  16.586075  2.673761
  6177.896  6177.900  0.500  2.198171  151.605585  16.829131  2.733536
  6179.893  6179.900  0.500  2.195856  151.677524  16.876134  2.744544
  6181.891  6181.900  0.500  2.193487  151.710155  16.919804  2.755162
  6183.888  6183.900  0.500  2.191667  151.724479  16.952221  2.763713
  6185.886  6185.900  0.500  2.189681  151.738591  16.987503  2.771990
  6187.890  6187.900  0.500  2.187431  151.753494  17.027441  2.780968
  6189.891  6189.900  0.500  2.184913  151.790133  17.074490  2.790966
  6191.890  6191.900  0.500  2.182948  151.801441  17.109358  2.797431
  6193.896  6193.900  0.500  2.181762  151.805892  17.130163  2.801889
  6195.895  6195.900  0.500  2.180045  151.842932  17.163792  2.805049
  6197.893  6197.900  0.500  2.178874  151.855669  17.185334  2.804462
  6198.386  6198.400  0.500  2.179180  151.844110  17.178767  2.802133
  6198.889  6198.900  0.500  2.178980  151.855590  17.183499  2.800577
  6199.389  6199.400  0.500  2.179199  151.851762  17.179308  2.798055
  6199.886  6199.900  0.500  2.179251  151.856562  17.178958  2.795402
  6200.384  6200.400  0.500  2.179325  151.866035  17.178756  2.791905
  6200.886  6200.900  0.500  2.179938  151.878118  17.169606  2.787703
  6201.385  6201.400  0.500  2.180508  151.871203  17.159033  2.781395
  6201.888  6201.900  0.500  2.181024  151.869060  17.149942  2.775253
  6202.389  6202.400  0.500  2.181969  151.856423  17.132309  2.766541
  6202.891  6202.900  0.500  2.182773  151.853366  17.118198  2.755797
  6203.391  6203.400  0.500  2.184494  151.870692  17.090725  2.742977
  6203.887  6203.900  0.500  2.186192  151.873138  17.061994  2.726825
  6204.386  6204.400  0.500  2.188428  151.873451  17.023931  2.708608
  6204.890  6204.900  0.500  2.190781  151.861970  16.982636  2.688449
  6205.391  6205.400  0.500  2.192738  151.859736  16.949186  2.669056
  6205.894  6205.900  0.500  2.195429  151.879736  16.905852  2.647495
  6206.392  6206.400  0.500  2.198754  151.881269  16.849910  2.621773
  6206.892  6206.900  0.500  2.202758  151.879599  16.782395  2.591834
  6207.390  6207.400  0.500  2.207084  151.882434  16.710260  2.560621
  6207.894  6207.900  0.500  2.211921  151.887616  16.630198  2.525711
  6208.392  6208.400  0.500  2.218252  151.889913  16.525494  2.482776
  6208.894  6208.900  0.500  2.226485  151.885417  16.389515  2.428310
  6209.392  6209.400  0.500  2.237613  151.898451  16.209523  2.358343
  6209.892  6209.900  0.500  2.251862  151.895341  15.979866  2.268410
  6210.391  6210.400  0.500  2.270419  151.894678  15.685990  2.154364
  6210.896  6210.900  0.500  2.292552  151.899623  15.343126  2.019011
  6211.395  6211.400  0.500  2.318667  151.909596  14.948612  1.855464
  6211.895  6211.900  0.500  2.346836  151.909812  14.533419  1.673569
  6212.396  6212.400  0.500  2.374447  151.904026  14.137093  1.490319
  6212.893  6212.900  0.500  2.400192  151.903871  13.777761  1.316158
  6213.400  6213.400  0.500  2.422334  151.913176  13.476879  1.169053
  6213.901  6213.900  0.500  2.437692  151.899317  13.270266  1.070133
  6214.400  6214.400  0.500  2.446817  151.905344  13.150248  1.017080
  6214.896  6214.900  0.500  2.448166  151.898684  13.131942  1.011226
  6215.394  6215.400  0.500  2.441614  151.884898  13.217072  1.048203
  6215.897  6215.900  0.500  2.429796  151.892641  13.374872  1.117108
  6216.400  6216.400  0.500  2.413765  151.878047  13.589708  1.209558
  6216.898  6216.900  0.500  2.395259  151.896999  13.845263  1.312877
  6217.394  6217.400  0.500  2.377039  151.901386  14.100250  1.416124
  6217.896  6217.900  0.500  2.358235  151.892779  14.367091  1.521535
  6218.399  6218.400  0.500  2.341303  151.899965  14.613107  1.621445
  6218.902  6218.900  0.500  2.325536  151.895185  14.844868  1.711725
  6219.399  6219.400  0.500  2.311606  151.914830  15.055053  1.794100
  6219.903  6219.900  0.500  2.298487  151.907775  15.253153  1.869366
  6220.398  6220.400  0.500  2.287721  151.910971  15.418585  1.932569
  6220.898  6220.900  0.500  2.278680  151.908713  15.558391  1.987993
  6221.402  6221.400  0.500  2.271360  151.906703  15.672490  2.033588
  6221.907  6221.900  0.500  2.265619  151.905195  15.762560  2.069561
  6222.403  6222.400  0.500  2.261510  151.903209  15.827263  2.095840
  6222.902  6222.900  0.500  2.258701  151.908219  15.872309  2.113378
  6223.400  6223.400  0.500  2.257015  151.913621  15.899651  2.124530
  6223.901  6223.900  0.500  2.255878  151.909927  15.917349  2.131864
  6224.400  6224.400  0.500  2.254991  151.915793  15.932092  2.135696
  6224.904  6224.900  0.500  2.254885  151.903443  15.932483  2.136610
  6225.409  6225.400  0.500  2.254930  151.923891  15.933917  2.138656
  6225.903  6225.900  0.500  2.254464  151.920945  15.941033  2.140413
  6226.398  6226.400  0.500  2.253994  151.922173  15.948648  2.144017
  6226.903  6226.900  0.500  2.253077  151.935039  15.964629  2.149621
  6227.399  6227.400  0.500  2.252342  151.939849  15.976875  2.155707
  6227.902  6227.900  0.500  2.251690  151.945947  15.987940  2.163208
  6228.402  6228.400  0.500  2.250024  151.947135  16.014720  2.173145
  6228.906  6228.900  0.500  2.249158  151.940506  16.027902  2.182396
  6229.399  6229.400  0.500  2.248232  151.929703  16.041611  2.189796
  6229.900  6229.900  0.500  2.247140  151.929929  16.059158  2.198014
  6230.402  6230.400  0.500  2.246389  151.931026  16.071348  2.204271
  6230.899  6230.900  0.500  2.245253  151.937586  16.090300  2.209972
  6231.403  6231.400  0.500  2.244523  151.931536  16.101419  2.213550
  6231.903  6231.900  0.500  2.243616  151.934836  16.116369  2.215575
  6232.401  6232.400  0.500  2.242651  151.941192  16.132615  2.217033
  6232.900  6232.900  0.500  2.242038  151.944466  16.142847  2.215326
  6233.900  6233.890  0.500  2.240681  151.939199  16.164213  2.208464
  6234.899  6234.890  0.500  2.239420  151.926962  16.183299  2.195793
  6235.919  6235.910  0.500  2.239119  151.929619  16.188448  2.178849
  6236.973  6236.960  0.500  2.239183  151.937261  16.188229  2.161011
  6238.031  6238.020  0.500  2.239404  151.959441  16.187013  2.143028
  6239.111  6239.100  0.500  2.240534  151.971657  16.170036  2.124128
  6240.210  6240.200  0.500  2.241689  151.978803  16.152132  2.105832
  6241.331  6241.320  0.500  2.243814  151.983784  16.118366  2.086053
  6242.468  6242.460  0.500  2.245866  151.978706  16.084792  2.068182
  6243.623  6243.610  0.500  2.247053  151.993843  16.067311  2.055492
  6244.790  6244.790  0.500  2.248550  151.987689  16.042635  2.045024
  6245.990  6245.980  0.500  2.249827  151.981895  16.021546  2.040053
  6247.206  6247.200  0.500  2.250237  151.990390  16.015879  2.041614
  6248.440  6248.430  0.500  2.249651  152.005570  16.026866  2.049573
  6249.690  6249.680  0.500  2.248459  152.011867  16.046639  2.061232
  6250.953  6250.950  0.500  2.245869  152.020589  16.089181  2.078860
  6252.251  6252.240  0.500  2.242621  152.017001  16.141149  2.099580
  6253.554  6253.550  0.500  2.238251  152.016632  16.211794  2.123713
  6254.890  6254.880  0.500  2.234031  152.016879  16.280371  2.149502
  6256.237  6256.230  0.500  2.229609  152.030299  16.353966  2.177796
  6257.612  6257.600  0.500  2.225703  152.030017  16.417952  2.204868
  6258.990  6258.980  0.500  2.221429  152.037945  16.489123  2.229909
  6260.399  6260.390  0.500  2.217268  152.022917  16.556249  2.252400
  6261.818  6261.810  0.500  2.214185  152.016584  16.606667  2.269323
  6263.258  6263.250  0.500  2.211649  152.033394  16.650674  2.282844
  6264.719  6264.710  0.500  2.208583  152.049835  16.703611  2.293644
  6266.200  6266.190  0.500  2.206164  152.065299  16.745774  2.302340
  6267.700  6267.690  0.500  2.204411  152.082666  16.777075  2.308563
  6269.222  6269.210  0.500  2.202483  152.095655  16.810887  2.315158
  6270.762  6270.750  0.500  2.200712  152.085756  16.839585  2.320748
  6272.324  6272.310  0.500  2.199072  152.089750  16.867663  2.324486
  6273.889  6273.880  0.500  2.197697  152.092164  16.891155  2.326272
  6275.497  6275.480  0.500  2.196204  152.110110  16.918379  2.326720
  6277.090  6277.090  0.500  2.195061  152.121834  16.939032  2.325529
  6278.737  6278.730  0.500  2.194123  152.119141  16.954625  2.324340
  6280.389  6280.380  0.500  2.193358  152.114168  16.967053  2.322232
  6282.055  6282.050  0.500  2.192861  152.143458  16.978759  2.318363
  6283.752  6283.740  0.500  2.191789  152.135238  16.996048  2.314747
  6285.454  6285.450  0.500  2.190908  152.120033  17.009321  2.310534
  6287.188  6287.180  0.500  2.190375  152.118694  17.018248  2.307641
  6288.940  6288.930  0.500  2.188434  152.110153  17.050348  2.310425
  6290.697  6290.690  0.500  2.186817  152.117753  17.078794  2.315464
  6292.490  6292.480  0.500  2.184967  152.119800  17.110658  2.324144
  6294.287  6294.280  0.500  2.182638  152.133877  17.152148  2.334761
  6296.119  6296.110  0.500  2.180185  152.138465  17.194779  2.345665
  6297.958  6297.950  0.500  2.177629  152.122920  17.237034  2.358092
  6299.818  6299.810  0.500  2.174588  152.129772  17.290302  2.372675
  6301.700  6301.690  0.500  2.171821  152.131627  17.338426  2.388676
  6303.599  6303.590  0.500  2.168710  152.114859  17.390524  2.406024
  6305.518  6305.510  0.500  2.165820  152.115914  17.440978  2.423024
  6307.455  6307.450  0.500  2.162918  152.110282  17.491025  2.439019
  6309.423  6309.410  0.500  2.159859  152.119598  17.545693  2.456039
  6311.389  6311.380  0.500  2.157239  152.112788  17.590930  2.472700
  6313.383  6313.380  0.500  2.154723  152.118426  17.635899  2.486247
  6315.400  6315.390  0.500  2.152195  152.111041  17.679683  2.498004
  6317.431  6317.420  0.500  2.149647  152.093505  17.722731  2.507852
  6319.486  6319.480  0.500  2.147167  152.083624  17.765594  2.515984
  6321.557  6321.550  0.500  2.145240  152.049104  17.795822  2.522954
  6323.648  6323.640  0.500  2.142979  152.047819  17.835942  2.530515
  6325.761  6325.750  0.500  2.140440  152.041379  17.880536  2.539131
  6327.889  6327.880  0.500  2.138717  152.031679  17.910228  2.546497
  6330.030  6330.020  0.500  2.136364  152.019411  17.950964  2.555248
  6332.198  6332.190  0.500  2.133703  152.009401  17.997622  2.565518
  6334.390  6334.380  0.500  2.131095  152.008763  18.044533  2.575099
  6336.589  6336.580  0.500  2.128751  151.988780  18.084509  2.583779
  6338.809  6338.800  0.500  2.126258  151.978119  18.128374  2.592825
  6341.059  6341.050  0.500  2.123682  151.966308  18.173723  2.601388
  6343.314  6343.310  0.500  2.120933  151.942739  18.220926  2.611846
  6345.598  6345.590  0.500  2.118117  151.932572  18.271084  2.621385
  6347.901  6347.890  0.500  2.115402  151.920363  18.319288  2.628827
  6350.222  6350.210  0.500  2.112235  151.900388  18.374975  2.637314
  6352.562  6352.550  0.500  2.109615  151.874757  18.420071  2.643936
  6354.907  6354.900  0.500  2.106793  151.879803  18.472737  2.653598
  6357.286  6357.280  0.500  2.103627  151.858081  18.528669  2.665023
  6359.677  6359.670  0.500  2.100536  151.837808  18.583550  2.679211
  6362.099  6362.090  0.500  2.097991  151.830698  18.630029  2.693590
  6364.528  6364.520  0.500  2.095006  151.815500  18.683856  2.709241
  6366.981  6366.970  0.500  2.092219  151.778948  18.731483  2.724624
  6369.460  6369.450  0.500  2.089961  152.360994  18.845827  2.750988
  6371.948  6371.940  0.500  2.087500  152.357429  18.891820  2.767529
  6374.458  6374.450  0.500  2.084682  152.331416  18.941894  2.785082
  6376.977  6376.970  0.500  2.082268  152.323396  18.986683  2.801640
  6379.528  6379.520  0.500  2.079966  152.302455  19.027830  2.815545
  6382.095  6382.090  0.500  2.077142  152.275657  19.078273  2.829326
  6384.674  6384.670  0.500  2.073754  152.240580  19.138609  2.844430
  6387.285  6387.280  0.500  2.070561  152.223437  19.197655  2.858684
  6389.908  6389.900  0.500  2.067507  152.188452  19.251957  2.871455
  6392.555  6392.550  0.500  2.063930  152.150763  19.316165  2.885424
  6395.221  6395.210  0.500  2.060524  152.122803  19.378489  2.898375
  6397.899  6397.890  0.500  2.056802  152.088366  19.446350  2.913319
  6400.601  6400.590  0.500  2.053641  152.066568  19.505124  2.926920
  6403.319  6403.310  0.500  2.049874  152.021349  19.572928  2.941572
  6406.058  6406.050  0.500  2.046435  151.995303  19.636977  2.957618
  6408.809  6408.800  0.500  2.042992  151.974478  19.702005  2.974622
  6411.588  6411.580  0.500  2.039819  151.956667  19.762304  2.990003
  6414.377  6414.370  0.500  2.036636  151.947511  19.824112  3.005920
  6417.196  6417.190  0.500  2.033837  151.890616  19.872233  3.019661
  6420.024  6420.020  0.500  2.030805  151.860421  19.928619  3.034870
  6422.877  6422.870  0.500  2.027793  151.798791  19.980624  3.049509
  6425.758  6425.750  0.500  2.024802  151.749623  20.033982  3.063839
  6428.648  6428.640  0.500  2.021976  151.676649  20.081017  3.077530
  6431.558  6431.550  0.500  2.018948  151.593638  20.130889  3.092105
  6434.478  6434.470  0.500  2.015769  151.507064  20.183465  3.105604
  6437.425  6437.420  0.500  2.012610  151.458414  20.240809  3.120227
  6440.395  6440.390  0.500  2.009624  151.434249  20.298109  3.134550
  6443.378  6443.370  0.500  2.006381  151.398810  20.359280  3.150012
  6446.389  6446.380  0.500  2.003018  151.334731  20.419219  3.165915
  6449.407  6449.400  0.500  1.999888  149.926686  20.292637  3.151767
  6452.460  6452.450  0.500  1.995975  151.173249  20.541580  3.199000
  6455.517  6455.510  0.500  1.992687  151.175421  20.609546  3.218789
  6458.596  6458.590  0.500  1.989191  148.520351  20.318485  3.182381
  6461.702  6461.690  0.500  1.985298  150.975458  20.734920  3.259087
  6464.815  6464.810  0.500  1.981665  148.427570  20.459196  3.226482
  6467.955  6467.950  0.500  1.978757  150.791078  20.845510  3.296357
  6471.109  6471.100  0.500  1.975405  150.785490  20.914727  3.316916
  6474.285  6474.280  0.500  1.971755  148.892952  20.727728  3.296082
  6477.477  6477.470  0.500  1.968275  150.596273  21.037933  3.353546
  6480.697  6480.690  0.500  1.964568  150.578981  21.113652  3.373735
  6483.927  6483.920  0.500  1.960968  150.521756  21.181732  3.392591
  6487.180  6487.170  0.500  1.957107  150.462902  21.255376  3.410166
  6490.460  6490.450  0.500  1.953602  150.395404  21.320433  3.427297
  6493.741  6493.740  0.500  1.950410  150.327394  21.378914  3.443304
  6497.060  6497.050  0.500  1.946568  150.238753  21.448570  3.460969
  6500.385  6500.370  0.500  1.942702  150.178185  21.522964  3.481191
  6503.730  6503.720  0.500  1.939115  150.116832  21.591474  3.501062
  6507.101  6507.090  0.500  1.935586  150.032420  21.655633  3.521242
  6510.482  6510.470  0.500  1.931998  149.954797  21.722230  3.541339
  6513.893  6513.880  0.500  1.928011  149.867875  21.796365  3.563812
  6517.326  6517.300  0.500  1.924442  149.785806  21.862311  3.584779
  6520.765  6520.750  0.500  1.921365  149.721887  21.920334  3.604020
  6524.240  6524.210  0.500  1.917868  149.611601  21.980921  3.623607
  6527.684  6527.690  0.500  1.913891  149.475618  22.048440  3.644584
  6531.190  6531.190  0.500  1.909889  149.403218  22.126140  3.666793
  6534.734  6534.710  0.500  1.905928  149.268992  22.193992  3.686917
  6538.260  6538.250  0.500  1.902216  149.184477  22.263915  3.708030
  6541.810  6541.800  0.500  1.898955  149.072617  22.319893  3.726862
  6545.404  6545.380  0.500  1.895113  148.944807  22.386612  3.747359
  6548.997  6548.980  0.500  1.891285  148.819649  22.453580  3.767617
  6552.617  6552.590  0.500  1.887445  148.693851  22.520909  3.788707
  6556.234  6556.220  0.500  1.883691  148.582429  22.588679  3.809238
  6559.895  6559.880  0.500  1.879590  148.449247  22.661173  3.832013
  6563.575  6563.550  0.500  1.875921  148.340775  22.727863  3.855224
  6567.238  6567.240  0.500  1.872189  148.230507  22.795870  3.878406
  6570.963  6570.950  0.500  1.868538  148.109924  22.860639  3.902251
  6574.674  6574.680  0.500  1.864539  148.008305  22.936505  3.926964
  6578.434  6578.420  0.500  1.860526  147.930828  23.016671  3.953666
  6582.187  6582.190  0.500  1.856243  147.788182  23.093180  3.977619
  6586.006  6585.980  0.500  1.852430  147.452393  23.128732  3.994524
  6589.788  6589.780  0.500  1.848374  147.518454  23.233127  4.023209
  6593.593  6593.610  0.500  1.844775  147.402909  23.298624  4.044831
  6597.434  6597.450  0.500  1.840993  147.276996  23.366945  4.068134
  6601.320  6601.310  0.500  1.836674  147.154755  23.448592  4.093792
  6605.209  6605.190  0.500  1.832503  147.000637  23.521949  4.119036
  6609.100  6609.090  0.500  1.828365  146.919370  23.606425  4.144942
  6613.023  6613.010  0.500  1.824576  146.802169  23.677127  4.167707
  6616.965  6616.950  0.500  1.820534  146.665589  23.750927  4.191884
  6620.921  6620.910  0.500  1.816064  146.499546  23.830311  4.217348
  6624.895  6624.880  0.500  1.812456  146.395727  23.899486  4.241201
  6628.896  6628.880  0.500  1.808248  146.201526  23.968435  4.266353
  6632.881  6632.890  0.500  1.804224  146.146910  24.056095  4.294337
  6636.929  6636.930  0.500  1.800127  146.039869  24.137157  4.322704
  6640.966  6640.980  0.500  1.795775  145.888650  24.217337  4.350744
  6645.034  6645.050  0.500  1.791462  145.766748  24.301676  4.379758
  6649.121  6649.140  0.500  1.787533  145.642749  24.376607  4.406450
  6653.265  6653.250  0.500  1.783520  145.525250  24.454864  4.434420
  6657.370  6657.380  0.500  1.779412  145.393203  24.533253  4.461261
  6661.515  6661.530  0.500  1.775391  145.255859  24.608851  4.488207
  6665.675  6665.690  0.500  1.771265  145.125333  24.688369  4.516376
  6669.865  6669.880  0.500  1.767320  144.987210  24.762385  4.543035
  6674.066  6674.080  0.500  1.763366  144.861399  24.838908  4.570567
  6678.298  6678.310  0.500  1.759257  144.703050  24.913927  4.598819
  6682.542  6682.550  0.500  1.755029  144.576910  24.997677  4.628836
  6686.794  6686.810  0.500  1.750602  144.462487  25.088720  4.659923
  6691.074  6691.090  0.500  1.746391  144.332903  25.171976  4.689364
  6695.387  6695.390  0.500  1.742226  144.164534  25.247544  4.717309
  6699.693  6699.710  0.500  1.737974  144.008512  25.327700  4.744936
