# XDI/1.0 BlueSky/1.10.0 BMM/2023-1.0-py310-tiled
# Beamline.name: BMM (06BM) -- Beamline for Materials Measurement (NIST)
# Beamline.xray_source: NSLS-II three-pole wiggler
# Beamline.collimation: paraboloid mirror, 5 nm Rh on 30 nm Pt
# Beamline.focusing: not in use
# Beamline.harmonic_rejection: flat mirror, Si stripe, pitch = 7.0 mrad relative to beam
# Beamline.software: Bluesky 1.10.0, Ophyd 1.7.0, DataBroker 2.0.0b13, Python 3.10.8, 2023-1.0-py310-tiled
# Detector.I0: 10 cm N2
# Detector.I1: 25 cm N2
# Detector.I2: 25 cm N2
# Element.symbol: Nd
# Element.edge: L1
# Element.reference: Nd
# Element.reference_material: Nd2O3
# Facility.name: NSLS-II
# Facility.energy: 3.0
# Facility.current: 400.6
# Facility.mode: top-off
# Facility.GUP: 123456
# Facility.SAF: 301027
# Facility.cycle: 2023-2
# Mono.name: Si(111)
# Mono.d_spacing: 3.1351860
# Mono.encoder_resolution: 0.0000050 deg/ct
# Mono.angle_offset: 16.0754326 deg
# Mono.scan_mode: pseudo channel cut
# Mono.scan_type: step
# Mono.direction: forward in energy
# Sample.name: Nd2TiO5
# Sample.prep: Powder in PEG pellet
# Sample.x: 149.848 mm
# Sample.y: 114.690 mm
# Sample.SDD_position: 205.000 mm
# Scan.experimenters: Bruce Ravel
# Scan.edge_energy: 7126.0
# Scan.start_time: 2023-05-08T20:11:33
# Scan.end_time: 2023-05-08T20:17:15
# Scan.transient_id: 75571
# Scan.uid: 4a014ff8-2d51-4141-ac58-c67da8b04c53
# Scan.plot_hint: ln(I0/It)  --  ln($5/$6)
# Column.1: energy eV
# Column.2: requested_energy eV
# Column.3: measurement_time seconds
# Column.4: xmu 
# Column.5: I0 nA
# Column.6: It nA
# Column.7: Ir nA
# ///////////
# sample courtesy Martin Stennett, University of Sheffield
# -----------
# energy  requested_energy  measurement_time  xmu  I0  It  Ir
  6926.002  6926.000  0.500  1.314287  151.356883  40.664412  7.857312
  6936.004  6936.000  0.500  1.306890  151.368180  40.969399  7.963745
  6946.058  6946.000  0.500  1.300004  151.439515  41.271938  8.070124
  6956.028  6956.000  0.500  1.292693  151.484719  41.587181  8.174912
  6966.026  6966.000  0.500  1.285193  151.563640  41.922071  8.288928
  6976.015  6976.000  0.500  1.277704  151.578402  42.241308  8.412595
  6986.012  6986.000  0.500  1.270358  151.602540  42.559528  8.532646
  6996.013  6996.000  0.500  1.263283  151.634990  42.870918  8.645643
  7006.015  7006.000  0.500  1.256013  151.656850  43.189939  8.756183
  7016.016  7016.000  0.500  1.248703  151.628727  43.498722  8.867219
  7026.015  7026.000  0.500  1.241794  151.626757  43.799730  8.984185
  7036.010  7036.000  0.500  1.234294  150.437423  43.783336  9.046989
  7046.008  7046.000  0.500  1.227249  150.447058  44.095705  9.164261
  7056.006  7056.000  0.500  1.220229  150.426315  44.400217  9.278323
  7066.010  7066.000  0.500  1.213423  150.323860  44.672971  9.386053
  7076.017  7076.000  0.500  1.206320  149.616353  44.779669  9.459831
  7086.016  7086.000  0.500  1.199384  150.139826  45.249089  9.619725
  7096.014  7096.000  0.500  1.192293  150.084456  45.554319  9.740244
  7098.003  7098.000  0.500  1.191169  150.080003  45.604192  9.761719
  7100.007  7100.000  0.500  1.189806  150.083360  45.667390  9.784989
  7101.999  7102.000  0.500  1.188455  150.046693  45.717972  9.805709
  7103.997  7104.000  0.500  1.187151  150.036314  45.774464  9.827064
  7105.998  7106.000  0.500  1.185720  150.001193  45.829273  9.848998
  7108.000  7108.000  0.500  1.184400  149.979507  45.883164  9.872305
  7109.996  7110.000  0.500  1.183197  149.935010  45.924795  9.891356
  7111.998  7112.000  0.500  1.181876  149.787751  45.940335  9.903234
  7113.993  7114.000  0.500  1.180534  149.656273  45.961664  9.916716
  7116.002  7116.000  0.500  1.179236  149.645254  46.017957  9.937943
  7116.485  7116.500  0.500  1.178999  149.609040  46.017699  9.939598
  7116.988  7117.000  0.500  1.178544  149.602758  46.036733  9.946391
  7117.484  7117.500  0.500  1.178585  149.598822  46.033622  9.947263
  7117.984  7118.000  0.500  1.178409  149.563870  46.030984  9.949264
  7118.483  7118.500  0.500  1.177529  149.540840  46.064415  9.957243
  7118.983  7119.000  0.500  1.177261  149.521866  46.070926  9.961200
  7119.488  7119.500  0.500  1.176762  149.494845  46.085581  9.965302
  7119.989  7120.000  0.500  1.176582  149.451216  46.080398  9.967178
  7120.488  7120.500  0.500  1.176348  149.461740  46.094455  9.971224
  7120.984  7121.000  0.500  1.176149  149.429389  46.093654  9.972482
  7121.494  7121.500  0.500  1.175857  149.400291  46.098101  9.973710
  7121.982  7122.000  0.500  1.175410  149.360559  46.106490  9.976979
  7122.487  7122.500  0.500  1.175149  149.353958  46.116475  9.979886
  7122.986  7123.000  0.500  1.174785  149.335076  46.127418  9.982985
  7123.490  7123.500  0.500  1.174432  149.282746  46.127551  9.985355
  7123.995  7124.000  0.500  1.174223  149.268663  46.132830  9.985887
  7124.488  7124.500  0.500  1.174038  149.268635  46.141363  9.989311
  7124.992  7125.000  0.500  1.173738  149.215069  46.138628  9.989210
  7125.487  7125.500  0.500  1.173373  149.177570  46.143893  9.991039
  7125.987  7126.000  0.500  1.173240  149.171428  46.148131  9.992015
  7126.490  7126.500  0.500  1.172968  149.132823  46.148714  9.991752
  7126.994  7127.000  0.500  1.172790  149.094621  46.145135  9.988761
  7127.501  7127.500  0.500  1.172553  149.060550  46.145498  9.986808
  7127.994  7128.000  0.500  1.172299  149.028732  46.147362  9.984236
  7128.496  7128.500  0.500  1.172224  148.983752  46.136924  9.977901
  7128.991  7129.000  0.500  1.172167  148.955162  46.130696  9.970689
  7129.494  7129.500  0.500  1.172061  148.924486  46.126072  9.962674
  7129.992  7130.000  0.500  1.171834  148.887905  46.125196  9.953757
  7130.498  7130.500  0.500  1.171940  148.833080  46.103353  9.938399
  7130.998  7131.000  0.500  1.171849  148.789206  46.093955  9.925688
  7131.496  7131.500  0.500  1.171719  148.751049  46.088125  9.914665
  7131.999  7132.000  0.500  1.171775  148.730771  46.079248  9.905387
  7132.493  7132.500  0.500  1.171320  148.718613  46.096466  9.901119
  7132.991  7133.000  0.500  1.171679  148.710794  46.077487  9.891057
  7133.498  7133.500  0.500  1.171523  148.683943  46.076358  9.883513
  7134.001  7134.000  0.500  1.171197  148.676479  46.089066  9.878126
  7134.502  7134.500  0.500  1.171226  148.648309  46.079006  9.868710
  7134.996  7135.000  0.500  1.170936  148.669970  46.099075  9.862417
  7135.501  7135.500  0.500  1.170502  148.675360  46.120753  9.852337
  7135.994  7136.000  0.500  1.170837  148.693042  46.110785  9.833593
  7136.495  7136.500  0.500  1.171079  148.634734  46.081537  9.809004
  7137.000  7137.000  0.500  1.170979  148.680411  46.100340  9.791863
  7137.499  7137.500  0.500  1.170672  148.691385  46.117893  9.771646
  7138.005  7138.000  0.500  1.170739  148.658507  46.104602  9.741493
  7138.502  7138.500  0.500  1.170923  148.637490  46.089619  9.707019
  7139.001  7139.000  0.500  1.171221  148.633180  46.074524  9.670164
  7139.498  7139.500  0.500  1.171281  148.636432  46.072791  9.633922
  7139.995  7140.000  0.500  1.171147  148.631487  46.077426  9.596056
  7140.497  7140.500  0.500  1.171248  148.615012  46.067643  9.554869
  7141.001  7141.000  0.500  1.171216  148.632935  46.074710  9.518453
  7141.503  7141.500  0.500  1.171076  148.631611  46.080746  9.482199
  7142.002  7142.000  0.500  1.171039  148.642783  46.085884  9.449089
  7142.498  7142.500  0.500  1.170870  148.614301  46.084857  9.417289
  7142.993  7143.000  0.500  1.170660  148.601619  46.090577  9.393384
  7143.499  7143.500  0.500  1.170499  148.609730  46.100559  9.376642
  7143.999  7144.000  0.500  1.170319  148.601211  46.106177  9.364960
  7144.506  7144.500  0.500  1.170008  148.540684  46.101764  9.356928
  7145.002  7145.000  0.500  1.169638  148.589945  46.134101  9.363787
  7145.508  7145.500  0.500  1.169413  148.579190  46.141136  9.369894
  7146.002  7146.000  0.500  1.169222  148.627466  46.164956  9.385723
  7146.505  7146.500  0.500  1.168946  148.578386  46.162452  9.400150
  7146.999  7147.000  0.500  1.168566  148.582508  46.181276  9.420815
  7147.503  7147.500  0.500  1.168308  148.567252  46.188471  9.441448
  7148.004  7148.000  0.500  1.167832  148.564359  46.209546  9.465309
  7148.504  7148.500  0.500  1.167593  148.546812  46.215126  9.486593
  7149.005  7149.000  0.500  1.167411  148.546507  46.223427  9.510495
  7149.506  7149.500  0.500  1.166893  148.544469  46.246753  9.533831
  7150.000  7150.000  0.500  1.166638  148.542827  46.258040  9.555425
  7150.501  7150.500  0.500  1.166376  148.550036  46.272418  9.575025
  7150.996  7151.000  0.500  1.165989  148.534659  46.285546  9.592017
  7151.998  7151.990  0.500  1.165472  148.561016  46.317698  9.623694
  7152.998  7152.990  0.500  1.164838  148.525157  46.335885  9.645855
  7154.016  7154.010  0.500  1.164074  148.517622  46.368931  9.668407
  7155.067  7155.060  0.500  1.163187  148.492220  46.402144  9.688641
  7156.135  7156.120  0.500  1.162232  148.508415  46.451531  9.713507
  7157.206  7157.200  0.500  1.161096  148.483405  46.496520  9.740000
  7158.310  7158.300  0.500  1.160127  148.464909  46.535791  9.766701
  7159.432  7159.420  0.500  1.158863  148.442838  46.587726  9.798046
  7160.567  7160.560  0.500  1.157621  148.333297  46.611182  9.826752
  7161.720  7161.710  0.500  1.156576  148.400254  46.680981  9.863859
  7162.899  7162.890  0.500  1.155525  148.387382  46.726015  9.892186
  7164.090  7164.080  0.500  1.154469  148.338971  46.760141  9.918176
  7165.310  7165.300  0.500  1.153520  148.299119  46.791977  9.940320
  7166.543  7166.530  0.500  1.152592  148.251276  46.820267  9.959167
  7167.787  7167.780  0.500  1.151680  148.207515  46.849177  9.976262
  7169.060  7169.050  0.500  1.151072  148.195820  46.873979  9.988876
  7170.351  7170.340  0.500  1.150231  148.166348  46.904096  10.001241
  7171.662  7171.650  0.500  1.149522  148.163253  46.936346  10.009454
  7172.993  7172.980  0.500  1.148696  148.122910  46.962368  10.011959
  7174.342  7174.330  0.500  1.148211  148.113488  46.982155  10.007462
  7175.710  7175.700  0.500  1.147606  148.071616  46.997272  10.001769
  7177.095  7177.080  0.500  1.146623  148.052080  47.037310  10.000506
  7178.496  7178.490  0.500  1.145582  148.050081  47.085677  10.001733
  7179.920  7179.910  0.500  1.144720  148.018410  47.116188  10.005738
  7181.361  7181.350  0.500  1.143960  147.986422  47.141802  10.009482
  7182.817  7182.810  0.500  1.143196  147.976918  47.174805  10.014268
  7184.308  7184.290  0.500  1.142120  147.940804  47.214099  10.023587
  7185.799  7185.790  0.500  1.141313  147.914919  47.243945  10.033002
  7187.325  7187.310  0.500  1.140357  147.879453  47.277803  10.046493
  7188.862  7188.850  0.500  1.139705  147.864967  47.304005  10.057158
  7190.419  7190.410  0.500  1.138825  147.810343  47.328156  10.068892
  7191.990  7191.980  0.500  1.137831  145.348770  46.586241  9.918747
  7193.593  7193.580  0.500  1.136692  147.537357  47.341607  10.087419
  7195.205  7195.190  0.500  1.135573  147.634985  47.425958  10.115052
  7196.840  7196.830  0.500  1.134621  147.646355  47.474771  10.138641
  7198.495  7198.480  0.500  1.133710  147.591090  47.500296  10.157775
  7200.156  7200.150  0.500  1.132820  147.545194  47.527771  10.180789
  7201.857  7201.840  0.500  1.131566  147.525619  47.581103  10.211135
  7203.561  7203.550  0.500  1.130343  147.478064  47.623973  10.242469
  7205.299  7205.280  0.500  1.128978  147.445890  47.678611  10.278112
  7207.040  7207.030  0.500  1.127701  147.494355  47.755237  10.317462
  7208.806  7208.790  0.500  1.126468  147.884237  47.940574  10.378309
  7210.593  7210.580  0.500  1.125400  147.833673  47.975390  10.405044
  7212.392  7212.380  0.500  1.124169  147.735078  48.002425  10.426599
  7214.223  7214.210  0.500  1.122841  147.740633  48.068008  10.455724
  7216.068  7216.050  0.500  1.121480  147.708892  48.123156  10.479420
  7217.925  7217.910  0.500  1.120176  147.657129  48.169056  10.499180
  7219.803  7219.790  0.500  1.119119  147.597796  48.200609  10.515198
  7221.710  7221.690  0.500  1.117936  147.559998  48.245321  10.533112
  7223.621  7223.610  0.500  1.116503  147.524617  48.302942  10.550154
  7225.567  7225.550  0.500  1.115273  147.422518  48.328889  10.563242
  7227.515  7227.510  0.500  1.113920  145.815281  47.866748  10.469156
  7229.496  7229.480  0.500  1.112726  147.550979  48.494394  10.610030
  7231.496  7231.480  0.500  1.111362  147.507956  48.546426  10.625854
  7233.501  7233.490  0.500  1.110200  147.473081  48.591332  10.643657
  7235.539  7235.520  0.500  1.108654  147.390125  48.639147  10.664792
  7237.591  7237.580  0.500  1.107441  147.339882  48.681618  10.686955
  7239.673  7239.650  0.500  1.106147  147.350018  48.747966  10.714127
  7241.752  7241.740  0.500  1.104895  147.306801  48.794723  10.739960
  7243.863  7243.850  0.500  1.103771  147.164639  48.802455  10.755563
  7245.996  7245.980  0.500  1.102324  146.602862  48.686575  10.741729
  7248.128  7248.120  0.500  1.101084  147.126522  48.921121  10.804754
  7250.306  7250.290  0.500  1.099771  147.088768  48.972814  10.826360
  7252.489  7252.480  0.500  1.098362  146.972605  49.003127  10.843736
  7254.692  7254.680  0.500  1.097047  144.721351  48.316012  10.703464
  7256.914  7256.900  0.500  1.095695  147.113861  49.181234  10.907874
  7259.158  7259.150  0.500  1.094400  146.973998  49.198126  10.924660
  7261.421  7261.410  0.500  1.092964  146.555089  49.128402  10.921748
  7263.713  7263.690  0.500  1.091327  139.291823  46.770093  10.416220
  7265.999  7265.990  0.500  1.089942  146.171038  49.147942  10.950171
  7268.322  7268.310  0.500  1.088483  147.342634  49.614245  11.070542
  7270.663  7270.650  0.500  1.087010  147.316521  49.678557  11.103168
  7273.008  7273.000  0.500  1.085379  147.087654  49.682371  11.122236
  7275.395  7275.380  0.500  1.084111  147.287768  49.813084  11.168781
  7277.785  7277.770  0.500  1.082656  147.282652  49.883868  11.203209
  7280.205  7280.190  0.500  1.080921  147.245277  49.957796  11.238226
  7282.632  7282.620  0.500  1.079530  147.189992  50.008574  11.268145
  7285.075  7285.070  0.500  1.078004  145.330962  49.452361  11.158704
  7287.560  7287.550  0.500  1.076414  146.962861  50.087238  11.318898
  7290.045  7290.040  0.500  1.074957  146.975114  50.164412  11.350519
  7292.556  7292.550  0.500  1.073478  146.964675  50.235132  11.381210
  7295.078  7295.070  0.500  1.071728  146.910846  50.304665  11.409160
  7297.632  7297.620  0.500  1.070492  146.831096  50.339567  11.430171
  7300.201  7300.190  0.500  1.068910  146.622006  50.347427  11.443111
  7302.776  7302.770  0.500  1.066975  146.950592  50.558000  11.501669
  7305.392  7305.380  0.500  1.065253  146.872519  50.618237  11.530069
  7308.009  7308.000  0.500  1.063881  146.795973  50.661327  11.555972
  7310.658  7310.650  0.500  1.062203  146.749516  50.730332  11.584301
  7313.323  7313.310  0.500  1.060696  146.726113  50.798728  11.615744
  7316.004  7315.990  0.500  1.059141  146.655415  50.853277  11.645617
  7318.700  7318.690  0.500  1.057380  146.629941  50.934081  11.680332
  7321.414  7321.410  0.500  1.055934  146.562149  50.984176  11.711196
  7324.160  7324.150  0.500  1.054597  146.547041  51.047121  11.742606
  7326.912  7326.900  0.500  1.052833  146.489244  51.117080  11.778757
  7329.690  7329.680  0.500  1.050868  146.429057  51.196591  11.814185
  7332.478  7332.470  0.500  1.049178  146.393991  51.270901  11.848601
  7335.302  7335.290  0.500  1.047941  146.347371  51.318050  11.877307
  7338.131  7338.120  0.500  1.046260  146.078216  51.309838  11.892961
  7340.973  7340.970  0.500  1.044386  146.060746  51.399905  11.930904
  7343.862  7343.850  0.500  1.042599  146.128537  51.515753  11.975264
  7346.747  7346.740  0.500  1.040801  146.112005  51.602639  12.014778
  7349.660  7349.650  0.500  1.039247  146.045171  51.659235  12.044591
  7352.579  7352.570  0.500  1.037389  145.985595  51.734205  12.080332
  7355.531  7355.520  0.500  1.035424  145.922923  51.813703  12.117283
  7358.506  7358.490  0.500  1.033661  145.869354  51.886084  12.154552
  7361.484  7361.470  0.500  1.031678  145.832151  51.975787  12.196152
  7364.489  7364.480  0.500  1.029889  145.751347  52.040035  12.232179
  7367.511  7367.500  0.500  1.028125  145.708356  52.116524  12.271097
  7370.566  7370.550  0.500  1.026307  145.637009  52.185787  12.308403
  7373.630  7373.610  0.500  1.024561  145.591481  52.260627  12.349456
  7376.710  7376.690  0.500  1.022472  145.501050  52.337407  12.387119
  7379.807  7379.790  0.500  1.020761  145.419586  52.397688  12.420637
  7382.928  7382.910  0.500  1.019088  145.361571  52.464490  12.454879
  7386.067  7386.050  0.500  1.016811  145.273859  52.552341  12.494553
  7389.233  7389.200  0.500  1.015212  145.218038  52.616229  12.529655
  7392.402  7392.380  0.500  1.013359  145.198840  52.706824  12.569155
  7395.587  7395.570  0.500  1.011592  145.124109  52.772864  12.603436
  7398.812  7398.790  0.500  1.009690  145.034549  52.840727  12.637881
  7402.038  7402.020  0.500  1.007849  144.967052  52.913460  12.672624
  7405.307  7405.270  0.500  1.005913  144.895274  52.989744  12.711970
  7408.583  7408.550  0.500  1.003916  144.810683  53.064684  12.749875
  7411.860  7411.840  0.500  1.002297  144.755840  53.130490  12.786933
  7415.174  7415.150  0.500  1.000121  144.675344  53.216627  12.831283
  7418.488  7418.470  0.500  0.998107  144.586406  53.291127  12.870128
  7421.837  7421.820  0.500  0.996138  144.516867  53.370528  12.913931
  7425.210  7425.190  0.500  0.994434  144.409074  53.421634  12.950114
  7428.587  7428.570  0.500  0.992609  144.345921  53.495824  12.990253
  7431.997  7431.980  0.500  0.990743  144.249629  53.560009  13.030390
  7435.428  7435.400  0.500  0.988746  144.186193  53.643434  13.072658
  7438.875  7438.850  0.500  0.986696  144.064789  53.708300  13.111679
  7442.326  7442.310  0.500  0.984619  143.901865  53.759096  13.144530
  7445.775  7445.790  0.500  0.982644  141.119788  52.823953  12.943568
  7449.308  7449.290  0.500  0.980572  143.880005  53.968883  13.241257
  7452.824  7452.810  0.500  0.978465  143.375611  53.893097  13.246007
  7456.345  7456.350  0.500  0.976492  143.698045  54.121006  13.323154
  7459.936  7459.900  0.500  0.974408  140.281206  52.944317  13.053734
  7463.497  7463.480  0.500  0.972842  143.508148  54.247129  13.401849
  7467.071  7467.080  0.500  0.970589  142.417915  53.956436  13.354144
  7470.711  7470.690  0.500  0.968383  143.443384  54.464931  13.502777
  7474.323  7474.320  0.500  0.966520  143.351624  54.531587  13.544087
  7477.987  7477.980  0.500  0.964294  143.220106  54.602982  13.587095
  7481.673  7481.650  0.500  0.962159  143.104333  54.675457  13.628328
  7485.332  7485.340  0.500  0.960092  142.984038  54.742554  13.671075
  7489.045  7489.050  0.500  0.957986  142.879736  54.817943  13.715797
  7492.774  7492.780  0.500  0.955953  142.781357  54.891679  13.758331
  7496.537  7496.520  0.500  0.953886  142.662397  54.959420  13.798116
  7500.274  7500.290  0.500  0.951722  142.557584  55.038029  13.841783
  7504.062  7504.080  0.500  0.949624  142.445563  55.110261  13.884868
  7507.888  7507.880  0.500  0.947470  142.321952  55.181147  13.926746
  7511.720  7511.710  0.500  0.945407  142.228516  55.258830  13.971476
  7515.540  7515.550  0.500  0.943355  142.108969  55.325800  14.016524
  7519.412  7519.410  0.500  0.941136  141.966938  55.393267  14.058162
  7523.273  7523.290  0.500  0.939042  141.840067  55.459802  14.100541
  7527.199  7527.190  0.500  0.936965  141.770934  55.548002  14.148234
  7531.151  7531.110  0.500  0.934798  141.608468  55.604742  14.189272
  7535.090  7535.050  0.500  0.932707  141.477490  55.669570  14.233686
  7538.995  7539.010  0.500  0.930422  141.340574  55.742946  14.277882
  7542.991  7542.980  0.500  0.928439  141.202132  55.798879  14.320160
  7546.992  7546.980  0.500  0.926363  141.074163  55.864159  14.366670
  7551.002  7550.990  0.500  0.924033  140.943273  55.942526  14.412274
  7555.035  7555.030  0.500  0.921852  140.851728  56.028252  14.464946
  7559.095  7559.080  0.500  0.919738  140.723606  56.095744  14.506935
  7563.170  7563.150  0.500  0.917589  140.560714  56.151332  14.551210
  7567.256  7567.240  0.500  0.915250  140.486198  56.252981  14.604022
  7571.369  7571.350  0.500  0.912985  140.324224  56.315539  14.646623
  7575.491  7575.480  0.500  0.910943  140.169464  56.368409  14.687478
  7579.648  7579.630  0.500  0.908751  140.020347  56.432028  14.733461
  7583.799  7583.790  0.500  0.906523  139.889120  56.504908  14.780164
  7587.989  7587.980  0.500  0.904398  139.648464  56.527655  14.815929
  7592.194  7592.180  0.500  0.902148  139.499251  56.594495  14.863598
  7596.426  7596.410  0.500  0.899897  139.283696  56.634342  14.903419
  7600.670  7600.650  0.500  0.897829  138.889384  56.590926  14.921656
  7604.924  7604.910  0.500  0.895796  138.500038  56.547114  14.939019
  7609.218  7609.190  0.500  0.893156  138.282848  56.607723  14.984808
  7613.321  7613.490  0.500  0.891892  138.175554  56.635324  15.005844
  7617.788  7617.810  0.500  0.888546  138.122458  56.803309  15.096778
  7622.176  7622.150  0.500  0.886157  138.216225  56.977837  15.171981
  7626.495  7626.510  0.500  0.883883  138.199377  57.100571  15.235699
  7630.886  7630.890  0.500  0.881770  138.105484  57.182485  15.288057
  7635.299  7635.280  0.500  0.879399  137.915238  57.239249  15.333872
  7639.733  7639.700  0.500  0.877076  137.752842  57.304859  15.383100
  7644.154  7644.130  0.500  0.874796  137.609596  57.375937  15.431457
  7648.559  7648.580  0.500  0.872375  137.465830  57.454923  15.482802
  7653.036  7653.050  0.500  0.870128  137.348131  57.534861  15.534468
  7657.531  7657.540  0.500  0.868000  137.172821  57.583791  15.580057
  7662.024  7662.050  0.500  0.865747  137.011942  57.646020  15.628058
  7666.567  7666.580  0.500  0.863373  136.808118  57.697075  15.672351
  7671.114  7671.130  0.500  0.861176  136.662229  57.762278  15.722612
