# XDI/1.0 BlueSky/1.10.0 BMM/2023-1.0-py310-tiled
# Beamline.name: BMM (06BM) -- Beamline for Materials Measurement (NIST)
# Beamline.xray_source: NSLS-II three-pole wiggler
# Beamline.collimation: paraboloid mirror, 5 nm Rh on 30 nm Pt
# Beamline.focusing: not in use
# Beamline.harmonic_rejection: flat mirror, Si stripe, pitch = 7.0 mrad relative to beam
# Beamline.software: Bluesky 1.10.0, Ophyd 1.7.0, DataBroker 2.0.0b13, Python 3.10.8, 2023-1.0-py310-tiled
# Detector.I0: 10 cm N2
# Detector.I1: 25 cm N2
# Detector.I2: 25 cm N2
# Element.symbol: Nd
# Element.edge: L1
# Element.reference: Nd
# Element.reference_material: Nd2O3
# Facility.name: NSLS-II
# Facility.energy: 3.0
# Facility.current: 400.4
# Facility.mode: top-off
# Facility.GUP: 301027
# Facility.SAF: 310583
# Facility.cycle: 2023-2
# Mono.name: Si(111)
# Mono.d_spacing: 3.1351860
# Mono.encoder_resolution: 0.0000050 deg/ct
# Mono.angle_offset: 16.0754326 deg
# Mono.scan_mode: pseudo channel cut
# Mono.scan_type: step
# Mono.direction: forward in energy
# Sample.name: Nd2O3
# Sample.prep: PEG pellet
# Sample.x: 109.138 mm
# Sample.y: 153.150 mm
# Sample.SDD_position: 205.000 mm
# Scan.experimenters: Bruce Ravel
# Scan.edge_energy: 7126.0
# Scan.start_time: 2023-05-28T13:28:20
# Scan.end_time: 2023-05-28T13:36:36
# Scan.transient_id: 78721
# Scan.uid: 20212404-7afd-4361-88be-f6cd3da5e71a
# Scan.plot_hint: ln(It/Ir)  --  ln($6/$7)
# Column.1: energy eV
# Column.2: requested_energy eV
# Column.3: measurement_time seconds
# Column.4: xmu 
# Column.5: I0 nA
# Column.6: It nA
# Column.7: Ir nA
# ///////////
# sample courtesy Martin Stennett, University of Sheffield
# -----------
# energy  requested_energy  measurement_time  xmu  I0  It  Ir
  6926.002  6926.000  0.500  1.966616  152.073739  141.652517  19.821378
  6936.012  6936.000  0.500  1.959133  152.126104  142.150771  20.040494
  6946.017  6946.000  0.500  1.951783  152.202706  142.702360  20.266682
  6956.008  6956.000  0.500  1.944803  152.256519  143.243201  20.485981
  6966.010  6966.000  0.500  1.937778  152.321917  143.730573  20.700595
  6975.991  6976.000  0.500  1.929047  152.364857  144.194486  20.949534
  6985.995  6986.000  0.500  1.920845  152.382799  144.664260  21.190878
  6996.005  6996.000  0.500  1.913564  152.449415  145.158270  21.418624
  7006.005  7006.000  0.500  1.906890  152.502570  145.710619  21.644087
  7016.014  7016.000  0.500  1.899889  152.510750  146.171643  21.865121
  7026.021  7026.000  0.500  1.892209  152.565581  146.652966  22.106241
  7036.006  7036.000  0.500  1.884851  152.571776  147.128780  22.341748
  7046.017  7046.000  0.500  1.877610  152.634691  147.633516  22.581320
  7056.008  7056.000  0.500  1.870793  152.688383  148.128458  22.811997
  7066.019  7066.000  0.500  1.864027  152.649815  148.528899  23.028952
  7076.015  7076.000  0.500  1.856877  151.660291  148.008162  23.112898
  7086.010  7086.000  0.500  1.849607  152.592869  149.359978  23.494169
  7096.009  7096.000  0.500  1.842424  152.627443  149.856972  23.742274
  7098.016  7098.000  0.500  1.841108  152.638827  149.940248  23.786759
  7100.001  7100.000  0.500  1.839763  152.640201  150.009169  23.829724
  7102.003  7102.000  0.500  1.838464  152.643131  150.119514  23.878240
  7104.003  7104.000  0.500  1.837218  152.629590  150.207035  23.921942
  7106.000  7106.000  0.500  1.835973  152.637453  150.293598  23.965550
  7108.002  7108.000  0.500  1.834628  152.621245  150.363781  24.009010
  7110.001  7110.000  0.500  1.833409  152.581076  150.442087  24.050826
  7111.998  7112.000  0.500  1.832082  152.460668  150.383544  24.073382
  7114.006  7114.000  0.500  1.830941  152.341557  150.370612  24.098806
  7116.004  7116.000  0.500  1.829847  152.331986  150.440140  24.136337
  7116.288  7116.300  0.500  1.829601  152.315396  150.395957  24.135189
  7116.582  7116.600  0.500  1.829484  152.310686  150.441876  24.145382
  7116.885  7116.900  0.500  1.829250  152.294836  150.465520  24.154822
  7117.185  7117.200  0.500  1.829230  152.276656  150.443152  24.151715
  7117.486  7117.500  0.500  1.829019  152.265665  150.421695  24.153353
  7117.784  7117.800  0.500  1.828806  152.243119  150.368982  24.150037
  7118.085  7118.100  0.500  1.828759  152.227913  150.386857  24.154038
  7118.386  7118.400  0.500  1.828621  152.212532  150.375710  24.155581
  7118.685  7118.700  0.500  1.828328  152.199967  150.376212  24.162746
  7118.985  7119.000  0.500  1.828277  152.180637  150.341900  24.158464
  7119.282  7119.300  0.500  1.828136  152.164309  150.329421  24.159874
  7119.583  7119.600  0.500  1.827918  152.155876  150.334688  24.165978
  7119.884  7119.900  0.500  1.827830  152.144812  150.359595  24.172105
  7120.187  7120.200  0.500  1.827585  152.147738  150.365553  24.179008
  7120.488  7120.500  0.500  1.827529  152.130305  150.371020  24.181233
  7120.786  7120.800  0.500  1.827409  152.115050  150.379313  24.185459
  7121.090  7121.100  0.500  1.827231  152.105227  150.411702  24.194980
  7121.391  7121.400  0.500  1.827146  152.096949  150.414226  24.197439
  7121.700  7121.700  0.500  1.826985  152.073185  150.416727  24.201745
  7121.993  7122.000  0.500  1.826908  152.067446  150.367510  24.195692
  7122.292  7122.300  0.500  1.826762  152.053860  150.357246  24.197563
  7122.595  7122.600  0.500  1.826628  152.033730  150.342713  24.198460
  7122.890  7122.900  0.500  1.826558  152.020835  150.349508  24.201268
  7123.195  7123.200  0.500  1.826508  152.005297  150.366788  24.205258
  7123.494  7123.500  0.500  1.826461  151.987651  150.345513  24.202973
  7123.789  7123.800  0.500  1.826299  151.981658  150.363872  24.209846
  7124.090  7124.100  0.500  1.826220  151.972519  150.380707  24.214456
  7124.398  7124.400  0.500  1.826150  151.955381  150.437340  24.225285
  7124.697  7124.700  0.500  1.826057  151.949354  150.458786  24.230990
  7124.994  7125.000  0.500  1.826023  151.926118  150.431718  24.227461
  7125.295  7125.300  0.500  1.825971  151.915236  150.411900  24.225529
  7125.597  7125.600  0.500  1.825915  151.892185  150.404198  24.225631
  7125.896  7125.900  0.500  1.825941  151.876906  150.381696  24.221368
  7126.200  7126.200  0.500  1.825831  151.857963  150.359729  24.220513
  7126.497  7126.500  0.500  1.825866  151.840092  150.350772  24.218204
  7126.798  7126.800  0.500  1.825835  151.814815  150.329653  24.215564
  7127.093  7127.100  0.500  1.825846  151.803247  150.385141  24.224235
  7127.393  7127.400  0.500  1.825942  151.793891  150.331531  24.213279
  7127.694  7127.700  0.500  1.826010  151.785403  150.348311  24.214329
  7127.992  7128.000  0.500  1.826107  151.757536  150.338257  24.210376
  7128.295  7128.300  0.500  1.826288  151.737938  150.347113  24.207420
  7128.595  7128.600  0.500  1.826499  151.715341  150.355752  24.203688
  7128.899  7128.900  0.500  1.826762  151.700312  150.351317  24.196610
  7129.200  7129.200  0.500  1.827127  151.679297  150.344967  24.186755
  7129.496  7129.500  0.500  1.827531  151.658107  150.339404  24.176095
  7129.800  7129.800  0.500  1.828065  151.631526  150.344130  24.163955
  7130.104  7130.100  0.500  1.828586  151.606907  150.306602  24.145330
  7130.397  7130.400  0.500  1.828991  151.569611  150.271279  24.129878
  7130.701  7130.700  0.500  1.829671  151.545474  150.280037  24.114886
  7131.001  7131.000  0.500  1.830238  151.520498  150.262715  24.098445
  7131.296  7131.300  0.500  1.830911  151.495309  150.258878  24.081613
  7131.598  7131.600  0.500  1.831384  151.481506  150.204383  24.061500
  7131.900  7131.900  0.500  1.832001  151.459175  150.191897  24.044645
  7132.200  7132.200  0.500  1.832493  151.446498  150.197133  24.033655
  7132.499  7132.500  0.500  1.832758  151.430276  150.189667  24.026096
  7132.799  7132.800  0.500  1.833229  151.421229  150.239967  24.022830
  7133.095  7133.100  0.500  1.833581  151.409609  150.242987  24.014851
  7133.397  7133.400  0.500  1.833938  151.410454  150.286769  24.013286
  7133.697  7133.700  0.500  1.834229  151.414520  150.297106  24.007959
  7133.993  7134.000  0.500  1.834634  151.410402  150.299093  23.998536
  7134.297  7134.300  0.500  1.835086  151.416271  150.313726  23.990048
  7134.593  7134.600  0.500  1.835742  151.413945  150.304944  23.972905
  7134.899  7134.900  0.500  1.836194  151.416101  150.336926  23.967161
  7135.206  7135.200  0.500  1.837034  151.398243  150.369465  23.952219
  7135.495  7135.500  0.500  1.837732  151.408313  150.401659  23.940634
  7135.799  7135.800  0.500  1.838601  151.404370  150.383055  23.916893
  7136.097  7136.100  0.500  1.839614  151.397670  150.379004  23.892033
  7136.426  7136.400  0.500  1.840718  151.397297  150.368293  23.863969
  7136.681  7136.700  0.500  1.841651  151.848362  150.849490  23.918002
  7136.987  7137.000  0.500  1.842945  151.844746  150.845626  23.886458
  7137.298  7137.300  0.500  1.844268  151.845379  150.875131  23.859561
  7137.620  7137.600  0.500  1.845951  151.851064  150.864746  23.817783
  7137.933  7137.900  0.500  1.847523  151.858724  150.881914  23.783081
  7138.197  7138.200  0.500  1.849181  151.842570  150.905769  23.747447
  7138.534  7138.500  0.500  1.851177  151.848890  150.887122  23.697167
  7138.798  7138.800  0.500  1.853036  151.822791  150.881232  23.652218
  7139.105  7139.100  0.500  1.855055  151.808137  150.928001  23.611827
  7139.405  7139.400  0.500  1.857286  151.820029  150.889454  23.553194
  7139.703  7139.700  0.500  1.859627  151.811752  150.944479  23.506692
  7140.006  7140.000  0.500  1.862016  151.802167  150.965367  23.453843
  7140.302  7140.300  0.500  1.864445  151.800404  150.934245  23.392127
  7140.603  7140.600  0.500  1.866932  151.802437  150.931356  23.333571
  7140.901  7140.900  0.500  1.869356  151.800802  150.979846  23.284563
  7141.206  7141.200  0.500  1.871793  151.820277  150.988652  23.229229
  7141.505  7141.500  0.500  1.874061  151.812697  150.978982  23.175130
  7141.792  7141.800  0.500  1.876270  151.815341  151.018768  23.130087
  7142.093  7142.100  0.500  1.878516  151.815045  151.037428  23.081048
  7142.405  7142.400  0.500  1.880674  151.810258  151.024033  23.029236
  7142.699  7142.700  0.500  1.882581  151.815538  151.044907  22.988538
  7143.000  7143.000  0.500  1.884225  151.809714  151.073925  22.955197
  7143.300  7143.300  0.500  1.885680  151.811717  151.052370  22.918538
  7143.599  7143.600  0.500  1.886876  151.816555  151.059876  22.892304
  7143.906  7143.900  0.500  1.887893  151.816645  151.087220  22.873153
  7144.205  7144.200  0.500  1.888633  151.812011  151.104940  22.858927
  7144.497  7144.500  0.500  1.889195  151.813269  151.121480  22.848590
  7144.803  7144.800  0.500  1.889281  151.814388  151.204134  22.859107
  7145.110  7145.100  0.500  1.889142  151.808789  151.131715  22.851338
  7145.407  7145.400  0.500  1.888987  151.813030  151.150885  22.857773
  7145.701  7145.700  0.500  1.888447  151.809990  151.158018  22.871205
  7145.993  7146.000  0.500  1.887858  151.811491  151.195820  22.890401
  7146.295  7146.300  0.500  1.886939  151.822060  151.208205  22.913325
  7146.596  7146.600  0.500  1.886056  151.823603  151.217726  22.935011
  7146.895  7146.900  0.500  1.884986  151.823998  151.259051  22.965832
  7147.196  7147.200  0.500  1.883768  151.832724  151.292334  22.998897
  7147.497  7147.500  0.500  1.882542  151.820195  151.301180  23.028455
  7147.804  7147.800  0.500  1.881174  151.817250  151.273078  23.055696
  7148.099  7148.100  0.500  1.879921  151.821306  151.281108  23.085823
  7148.400  7148.400  0.500  1.878493  151.805867  151.273956  23.117729
  7148.704  7148.700  0.500  1.877028  151.802777  151.288769  23.153880
  7148.999  7149.000  0.500  1.875821  151.804638  151.283455  23.181034
  7149.304  7149.300  0.500  1.874427  151.812440  151.305705  23.216771
  7149.603  7149.600  0.500  1.873130  151.813201  151.362403  23.255625
  7149.896  7149.900  0.500  1.871912  151.812230  151.358022  23.283302
  7150.195  7150.200  0.500  1.870739  151.811323  151.354908  23.310146
  7150.497  7150.500  0.500  1.869690  151.799110  151.383092  23.338950
  7150.800  7150.800  0.500  1.868587  151.793386  151.429053  23.371804
  7150.996  7151.000  0.500  1.867860  151.812988  151.430804  23.389058
  7152.004  7151.990  0.500  1.865042  151.805659  151.482191  23.463041
  7153.005  7152.990  0.500  1.862716  151.803168  151.504028  23.521072
  7154.027  7154.010  0.500  1.861022  151.805194  151.531366  23.565190
  7155.069  7155.060  0.500  1.859340  151.794177  151.540221  23.606228
  7156.144  7156.120  0.500  1.857730  151.800515  151.616160  23.656117
  7157.215  7157.200  0.500  1.855969  151.786603  151.667623  23.705867
  7158.315  7158.300  0.500  1.854019  151.789492  151.731495  23.762135
  7159.426  7159.420  0.500  1.851615  151.787445  151.785437  23.827799
  7160.576  7160.560  0.500  1.849260  151.771472  151.788315  23.884429
  7161.722  7161.710  0.500  1.846773  151.745846  151.803624  23.946328
  7162.897  7162.890  0.500  1.844532  151.721936  151.869538  24.010474
  7164.090  7164.080  0.500  1.842339  151.703413  151.915527  24.070459
  7165.312  7165.300  0.500  1.840593  151.675281  151.889389  24.108382
  7166.545  7166.530  0.500  1.839156  151.637669  151.867143  24.139511
  7167.789  7167.780  0.500  1.837918  151.617971  151.930110  24.179432
  7169.056  7169.050  0.500  1.836881  151.600416  151.978385  24.212218
  7170.349  7170.340  0.500  1.836080  151.588449  151.998196  24.234770
  7171.655  7171.650  0.500  1.835814  151.574401  152.040759  24.248016
  7172.989  7172.980  0.500  1.835743  151.554154  152.086721  24.257064
  7174.338  7174.330  0.500  1.836175  151.538524  152.097162  24.248260
  7175.708  7175.700  0.500  1.837085  151.515087  152.162324  24.236568
  7177.084  7177.080  0.500  1.837936  151.530828  152.255871  24.230838
  7178.509  7178.490  0.500  1.838615  151.541610  152.296207  24.220806
  7179.915  7179.910  0.500  1.838925  151.530920  152.331915  24.218978
  7181.355  7181.350  0.500  1.839074  151.521542  152.368117  24.221133
  7182.817  7182.810  0.500  1.839015  151.506849  152.429597  24.232339
  7184.292  7184.290  0.500  1.838721  151.487354  152.515780  24.253169
  7185.795  7185.790  0.500  1.838173  151.480310  152.599956  24.279850
  7187.314  7187.310  0.500  1.837505  151.477194  152.625538  24.300157
  7188.859  7188.850  0.500  1.836706  151.482068  152.692058  24.330161
  7190.419  7190.410  0.500  1.835949  151.493042  152.763782  24.360024
  7191.988  7191.980  0.500  1.835174  149.477637  150.776888  24.061844
  7193.595  7193.580  0.500  1.834095  151.000679  152.414518  24.349450
  7195.196  7195.190  0.500  1.832924  151.245582  152.721970  24.427145
  7196.840  7196.830  0.500  1.831425  151.261152  152.841893  24.482992
  7198.484  7198.480  0.500  1.829841  151.264928  152.859909  24.524693
  7200.173  7200.150  0.500  1.828019  151.235761  152.905584  24.576762
  7201.828  7201.840  0.500  1.825868  151.196568  152.973647  24.640664
  7203.534  7203.550  0.500  1.823580  151.168512  153.041908  24.708110
  7205.268  7205.280  0.500  1.821023  151.150045  153.105928  24.781740
  7207.022  7207.030  0.500  1.818528  151.117783  153.142659  24.849613
  7208.786  7208.790  0.500  1.816234  151.080290  153.164249  24.910200
  7210.578  7210.580  0.500  1.814135  151.055443  153.158930  24.961654
  7212.379  7212.380  0.500  1.812398  151.030300  153.244862  25.019090
  7214.205  7214.210  0.500  1.810809  151.006504  153.340439  25.074496
  7216.057  7216.050  0.500  1.809503  150.974557  153.332810  25.106020
  7217.911  7217.910  0.500  1.808050  150.935309  153.401331  25.153774
  7219.800  7219.790  0.500  1.807042  150.905575  153.431865  25.184143
  7221.697  7221.690  0.500  1.805984  150.880413  153.445269  25.213009
  7223.624  7223.610  0.500  1.805151  150.844847  153.485658  25.240660
  7225.551  7225.550  0.500  1.804343  150.796907  153.513304  25.265608
  7227.513  7227.510  0.500  1.803579  150.095713  152.880240  25.180651
  7229.485  7229.480  0.500  1.802893  150.891054  153.796663  25.348983
  7231.478  7231.480  0.500  1.802147  150.866696  153.846045  25.376040
  7233.492  7233.490  0.500  1.801222  150.833608  153.873693  25.404099
  7235.523  7235.520  0.500  1.800037  150.801451  153.919353  25.441767
  7237.582  7237.580  0.500  1.798473  150.791170  153.989715  25.493226
  7239.657  7239.650  0.500  1.796957  150.765530  154.068006  25.544873
  7241.743  7241.740  0.500  1.795492  150.731622  154.145969  25.595275
  7243.854  7243.850  0.500  1.793882  150.617065  154.138011  25.635200
  7245.987  7245.980  0.500  1.792385  149.858269  153.442787  25.557798
  7248.126  7248.120  0.500  1.791097  150.619633  154.307898  25.735015
  7250.297  7250.290  0.500  1.789718  150.601997  154.371136  25.781108
  7252.483  7252.480  0.500  1.788499  150.477339  154.338908  25.807165
  7254.690  7254.680  0.500  1.787121  147.985582  151.898314  25.434089
  7256.901  7256.900  0.500  1.785807  150.684143  154.762119  25.947677
  7259.154  7259.150  0.500  1.784360  150.546519  154.720181  25.978200
  7261.421  7261.410  0.500  1.782959  150.183569  154.450502  25.969282
  7263.699  7263.690  0.500  1.782045  145.770302  150.039519  25.250697
  7266.003  7265.990  0.500  1.779942  148.564861  152.975731  25.799045
  7268.311  7268.310  0.500  1.778397  150.956472  155.499902  26.265286
  7270.652  7270.650  0.500  1.776522  150.952055  155.589655  26.329776
  7273.008  7273.000  0.500  1.774628  150.754433  155.508433  26.365917
  7275.386  7275.380  0.500  1.772644  150.685227  155.535709  26.422910
  7277.785  7277.770  0.500  1.770908  151.014400  155.987018  26.545608
  7280.193  7280.190  0.500  1.768920  150.969359  156.020469  26.604150
  7282.632  7282.620  0.500  1.767065  150.913638  156.061695  26.660586
  7285.075  7285.070  0.500  1.764971  148.322575  153.480760  26.274631
  7287.556  7287.550  0.500  1.763322  150.767040  156.086279  26.764769
  7290.047  7290.040  0.500  1.761776  150.801884  156.208832  26.827242
  7292.552  7292.550  0.500  1.760203  150.786505  156.370369  26.897248
  7295.078  7295.070  0.500  1.758864  150.761602  156.448611  26.946762
  7297.634  7297.620  0.500  1.757468  150.710404  156.464828  26.987208
  7300.203  7300.190  0.500  1.756160  150.562768  156.420395  27.014852
  7302.780  7302.770  0.500  1.754773  150.711267  156.686731  27.098424
  7305.396  7305.380  0.500  1.753361  150.760662  156.847640  27.164590
  7308.012  7308.000  0.500  1.751807  150.702649  156.881116  27.212638
  7310.658  7310.650  0.500  1.750236  150.674160  156.992807  27.274828
  7313.325  7313.310  0.500  1.748621  150.639008  157.049565  27.328770
  7316.004  7315.990  0.500  1.746921  150.596622  157.127346  27.388838
  7318.702  7318.690  0.500  1.745026  150.556554  157.148554  27.444483
  7321.427  7321.410  0.500  1.743292  150.821497  157.510782  27.555500
  7324.171  7324.150  0.500  1.741356  150.936364  157.787679  27.657421
  7326.912  7326.900  0.500  1.739543  150.926515  157.898339  27.727046
  7329.694  7329.680  0.500  1.737630  150.914159  157.987163  27.795778
  7332.488  7332.470  0.500  1.735820  150.900111  158.098056  27.865681
  7335.308  7335.290  0.500  1.734004  150.891122  158.190719  27.932686
  7338.134  7338.120  0.500  1.732256  150.807756  158.224293  27.987503
  7340.982  7340.970  0.500  1.730417  150.519688  158.049041  28.007946
  7343.869  7343.850  0.500  1.728571  150.657788  158.334138  28.110309
  7346.761  7346.740  0.500  1.726779  150.667444  158.405845  28.173479
  7349.667  7349.650  0.500  1.724982  150.647693  158.521847  28.244821
  7352.582  7352.570  0.500  1.723164  150.620238  158.614064  28.312673
  7355.536  7355.520  0.500  1.721306  150.591685  158.689618  28.378850
  7358.511  7358.490  0.500  1.719352  150.546211  158.751284  28.445412
  7361.488  7361.470  0.500  1.717305  150.498077  158.844489  28.520421
  7364.496  7364.480  0.500  1.715215  150.455684  158.887059  28.587752
  7367.513  7367.500  0.500  1.713167  150.417165  158.983626  28.663786
  7370.566  7370.550  0.500  1.711021  150.392607  159.063463  28.739788
  7373.634  7373.610  0.500  1.708998  150.344728  159.137292  28.811344
  7376.710  7376.690  0.500  1.706953  150.275279  159.158784  28.874235
  7379.805  7379.790  0.500  1.704976  150.226235  159.258568  28.949495
  7382.928  7382.910  0.500  1.703007  150.174884  159.357889  29.024657
  7386.058  7386.050  0.500  1.701243  150.116571  159.402844  29.084108
  7389.210  7389.200  0.500  1.699473  150.081848  159.514196  29.155968
  7392.392  7392.380  0.500  1.697511  150.049157  159.614416  29.231600
  7395.584  7395.570  0.500  1.695657  149.993441  159.648729  29.292143
  7398.807  7398.790  0.500  1.693738  149.945004  159.698962  29.357624
  7402.033  7402.020  0.500  1.691999  149.883833  159.774484  29.422644
  7405.276  7405.270  0.500  1.690072  149.833116  159.864784  29.496060
  7408.562  7408.550  0.500  1.688041  149.778710  159.955253  29.572754
  7411.845  7411.840  0.500  1.686076  149.739662  160.041017  29.646813
  7415.160  7415.150  0.500  1.684035  149.663799  160.052916  29.709577
  7418.483  7418.470  0.500  1.681850  149.607657  160.147530  29.792160
  7421.830  7421.820  0.500  1.679590  149.554409  160.252269  29.879099
  7425.201  7425.190  0.500  1.677466  149.493563  160.309828  29.953384
  7428.571  7428.570  0.500  1.675112  149.443605  160.362554  30.033847
  7431.986  7431.980  0.500  1.673147  149.368224  160.417361  30.103210
  7435.406  7435.400  0.500  1.670864  149.324603  160.482061  30.184190
  7438.859  7438.850  0.500  1.668778  149.247437  160.527336  30.255743
  7442.324  7442.310  0.500  1.666676  149.130689  160.537719  30.321363
  7445.801  7445.790  0.500  1.664742  147.965925  159.407152  30.166121
  7449.299  7449.290  0.500  1.662636  149.086285  160.753282  30.484993
  7452.821  7452.810  0.500  1.660528  148.665256  160.453442  30.492346
  7456.359  7456.350  0.500  1.658376  149.005981  160.978693  30.658086
  7459.907  7459.900  0.500  1.656192  144.856400  156.604994  29.890327
  7463.490  7463.480  0.500  1.654158  148.906003  161.141098  30.818707
  7467.090  7467.080  0.500  1.651925  148.410226  160.740386  30.810817
  7470.701  7470.690  0.500  1.649744  148.845327  161.367142  30.998472
  7474.332  7474.320  0.500  1.647503  148.740088  161.398050  31.073981
  7477.984  7477.980  0.500  1.645112  148.665465  161.431643  31.154836
  7481.656  7481.650  0.500  1.642947  148.598092  161.527145  31.240837
  7485.351  7485.340  0.500  1.640655  148.509622  161.516709  31.310497
  7489.062  7489.050  0.500  1.638469  148.434079  161.595443  31.394318
  7492.800  7492.780  0.500  1.636273  148.365748  161.693946  31.482529
  7496.537  7496.520  0.500  1.634109  148.305990  161.785078  31.568487
  7500.300  7500.290  0.500  1.631938  148.247805  161.864437  31.652641
  7504.098  7504.080  0.500  1.629761  148.161199  161.919155  31.732333
  7507.891  7507.880  0.500  1.627580  148.067880  162.012248  31.819910
  7511.725  7511.710  0.500  1.625276  147.993876  162.033629  31.897493
  7515.567  7515.550  0.500  1.623052  147.932837  162.084494  31.978572
  7519.421  7519.410  0.500  1.620742  147.852585  162.143907  32.064257
  7523.300  7523.290  0.500  1.618530  147.761889  162.199803  32.146349
  7527.209  7527.190  0.500  1.616297  147.695114  162.277731  32.233700
  7531.127  7531.110  0.500  1.613969  147.604005  162.287596  32.310789
  7535.066  7535.050  0.500  1.611675  147.517696  162.337881  32.395025
  7539.041  7539.010  0.500  1.609305  147.436335  162.403597  32.485040
  7542.996  7542.980  0.500  1.607035  147.346013  162.497584  32.577705
  7547.014  7546.980  0.500  1.604617  147.260252  162.536166  32.664320
  7551.009  7550.990  0.500  1.602305  147.175185  162.557057  32.744125
  7555.052  7555.030  0.500  1.599874  147.084712  162.592927  32.831083
  7559.095  7559.080  0.500  1.597548  146.990482  162.651568  32.919392
  7563.162  7563.150  0.500  1.595187  146.910615  162.716241  33.010331
  7567.261  7567.240  0.500  1.592959  146.823948  162.796777  33.100354
  7571.371  7571.350  0.500  1.590649  146.737971  162.868335  33.191493
  7575.506  7575.480  0.500  1.588327  146.647533  162.893040  33.273699
  7579.645  7579.630  0.500  1.585995  146.545429  162.929928  33.358935
  7583.811  7583.790  0.500  1.583515  146.435769  162.981867  33.452419
  7587.997  7587.980  0.500  1.581111  146.307982  163.001331  33.536931
  7592.202  7592.180  0.500  1.578830  146.177853  163.011427  33.615613
  7596.441  7596.410  0.500  1.576365  146.010952  162.979567  33.691984
  7600.673  7600.650  0.500  1.573978  145.758949  162.848667  33.745383
  7604.920  7604.910  0.500  1.571514  145.309850  162.477942  33.751624
  7609.203  7609.190  0.500  1.569093  145.120003  162.392654  33.815681
  7613.502  7613.490  0.500  1.566770  145.029999  162.456995  33.907729
  7617.820  7617.810  0.500  1.564369  145.041610  162.658224  34.031341
  7622.166  7622.150  0.500  1.561861  145.213697  163.005731  34.189706
  7626.519  7626.510  0.500  1.559441  145.275925  163.182439  34.309675
  7630.900  7630.890  0.500  1.556995  145.222785  163.282545  34.414823
  7635.294  7635.280  0.500  1.554501  145.137433  163.371883  34.519624
  7639.715  7639.700  0.500  1.552068  145.036912  163.432015  34.616460
  7644.162  7644.130  0.500  1.549661  144.922154  163.522526  34.719080
  7648.604  7648.580  0.500  1.547149  144.822051  163.543843  34.810948
  7653.073  7653.050  0.500  1.544776  144.724809  163.571855  34.899622
  7657.571  7657.540  0.500  1.542278  144.618800  163.618347  34.996852
  7662.066  7662.050  0.500  1.539871  144.510724  163.655524  35.089183
  7666.603  7666.580  0.500  1.537415  144.401624  163.684419  35.181671
  7671.149  7671.130  0.500  1.534800  144.286001  163.707440  35.278743
  7675.719  7675.700  0.500  1.532269  144.152860  163.715998  35.369999
  7680.297  7680.280  0.500  1.529906  144.037654  163.741100  35.459116
  7684.921  7684.890  0.500  1.527469  143.866271  163.696344  35.535907
  7689.528  7689.510  0.500  1.524972  143.920647  163.868974  35.662340
  7694.179  7694.160  0.500  1.522366  143.760638  163.880446  35.757911
  7698.833  7698.820  0.500  1.519901  143.612552  163.898702  35.850140
  7703.510  7703.500  0.500  1.517284  143.418382  163.856134  35.934733
  7708.214  7708.200  0.500  1.514759  143.478724  164.087078  36.076366
  7712.936  7712.920  0.500  1.512306  143.257672  163.992735  36.144171
  7717.675  7717.660  0.500  1.509841  143.060508  163.935070  36.220636
  7722.425  7722.410  0.500  1.507278  142.880896  163.864711  36.298026
  7727.201  7727.190  0.500  1.504718  142.863503  164.034749  36.428837
  7732.003  7731.990  0.500  1.502185  142.711351  164.014216  36.516634
  7736.807  7736.800  0.500  1.499364  142.520867  163.926799  36.600266
  7741.640  7741.630  0.500  1.497094  142.343642  163.852508  36.666844
  7746.492  7746.490  0.500  1.494454  142.336420  164.036767  36.805092
  7751.370  7751.360  0.500  1.491911  142.179558  164.035092  36.898426
  7756.253  7756.250  0.500  1.489495  142.028230  164.027728  36.986034
  7761.165  7761.160  0.500  1.486927  141.883162  164.011847  37.077543
  7766.091  7766.090  0.500  1.484442  141.726271  164.011797  37.169809
  7771.039  7771.030  0.500  1.481931  141.572190  163.991790  37.258702
  7776.004  7776.000  0.500  1.479417  141.418280  163.997200  37.353699
  7780.996  7780.990  0.500  1.476851  141.289061  164.028037  37.456726
  7785.995  7785.990  0.500  1.474281  141.143962  164.024746  37.552370
  7791.024  7791.020  0.500  1.471709  140.999350  164.037361  37.651957
  7796.065  7796.060  0.500  1.469206  140.851115  164.019741  37.742262
  7801.125  7801.120  0.500  1.466585  140.683369  163.987064  37.833779
  7806.205  7806.200  0.500  1.464002  140.535450  163.960554  37.925498
  7811.305  7811.300  0.500  1.461506  140.350861  163.951142  38.018110
  7816.426  7816.420  0.500  1.458766  140.203076  163.891343  38.108505
  7821.568  7821.560  0.500  1.456115  140.040691  163.888532  38.209003
  7826.734  7826.720  0.500  1.453472  139.873458  163.850562  38.301270
  7831.917  7831.900  0.500  1.450862  138.743820  162.700976  38.131950
  7837.099  7837.090  0.500  1.448177  139.527551  163.779178  38.487813
  7842.314  7842.310  0.500  1.445545  139.313305  163.706223  38.572086
  7847.550  7847.540  0.500  1.442993  138.984054  163.505844  38.623297
  7852.809  7852.790  0.500  1.440442  138.971979  163.668778  38.760535
  7858.081  7858.060  0.500  1.437815  138.785836  163.619675  38.850845
  7863.362  7863.350  0.500  1.435159  138.603419  163.585361  38.945988
  7868.675  7868.660  0.500  1.432533  138.424881  163.486276  39.024739
  7874.008  7873.990  0.500  1.429952  138.247069  163.436390  39.113670
  7879.359  7879.340  0.500  1.427282  138.062106  163.388841  39.206835
  7884.729  7884.710  0.500  1.424606  137.878091  163.367225  39.306665
  7890.132  7890.090  0.500  1.421971  137.684228  163.323929  39.399938
  7895.528  7895.500  0.500  1.419323  137.497116  163.279699  39.493717
  7900.909  7900.920  0.500  1.416741  136.989445  162.837278  39.488527
  7906.419  7906.370  0.500  1.414077  137.063630  163.093820  39.656252
  7911.872  7911.830  0.500  1.411451  136.866356  163.023377  39.743346
  7917.330  7917.310  0.500  1.408666  136.648660  162.932651  39.832015
  7922.826  7922.810  0.500  1.406121  136.427525  162.869126  39.917947
  7928.318  7928.330  0.500  1.403313  135.357191  161.734759  39.751398
  7933.892  7933.870  0.500  1.400751  135.956186  162.606527  40.068158
  7939.403  7939.420  0.500  1.398324  131.196896  157.063232  38.796301
  7945.017  7945.000  0.500  1.395438  135.653654  162.576255  40.274108
  7950.574  7950.600  0.500  1.392773  134.804535  161.742483  40.174490
  7956.214  7956.210  0.500  1.390040  135.164727  162.338204  40.432807
  7961.874  7961.850  0.500  1.387371  134.904270  162.172850  40.499602
  7967.477  7967.500  0.500  1.384713  134.658702  162.028368  40.571214
  7973.181  7973.170  0.500  1.382126  134.321828  161.799332  40.618802
  7978.833  7978.860  0.500  1.379468  134.307050  161.950320  40.764894
