# XDI/1.0 BlueSky/1.10.0 BMM/2023-1.0-py310-tiled
# Beamline.name: BMM (06BM) -- Beamline for Materials Measurement (NIST)
# Beamline.xray_source: NSLS-II three-pole wiggler
# Beamline.collimation: paraboloid mirror, 5 nm Rh on 30 nm Pt
# Beamline.focusing: not in use
# Beamline.harmonic_rejection: flat mirror, Si stripe, pitch = 7.0 mrad relative to beam
# Beamline.software: Bluesky 1.10.0, Ophyd 1.7.0, DataBroker 2.0.0b13, Python 3.10.8, 2023-1.0-py310-tiled
# Detector.I0: 10 cm N2
# Detector.I1: 25 cm N2
# Detector.I2: 25 cm N2
# Element.symbol: Nd
# Element.edge: L3
# Element.reference: Nd
# Element.reference_material: Nd2O3
# Facility.name: NSLS-II
# Facility.energy: 3.0
# Facility.current: 400.9
# Facility.mode: top-off
# Facility.GUP: 123456
# Facility.SAF: 301027
# Facility.cycle: 2023-2
# Mono.name: Si(111)
# Mono.d_spacing: 3.1351860
# Mono.encoder_resolution: 0.0000050 deg/ct
# Mono.angle_offset: 16.0754326 deg
# Mono.scan_mode: pseudo channel cut
# Mono.scan_type: step
# Mono.direction: forward in energy
# Sample.name: Nd2TiO5
# Sample.prep: Powder in PEG pellet
# Sample.x: 149.848 mm
# Sample.y: 114.690 mm
# Sample.SDD_position: 205.000 mm
# Scan.experimenters: Bruce Ravel
# Scan.edge_energy: 6207.9
# Scan.start_time: 2023-05-08T16:36:55
# Scan.end_time: 2023-05-08T16:42:35
# Scan.transient_id: 75407
# Scan.uid: d5538fbf-234c-419e-ba19-43b0d85200ab
# Scan.plot_hint: ln(I0/It)  --  ln($5/$6)
# Column.1: energy eV
# Column.2: requested_energy eV
# Column.3: measurement_time seconds
# Column.4: xmu 
# Column.5: I0 nA
# Column.6: It nA
# Column.7: Ir nA
# ///////////
# sample courtesy Martin Stennett, University of Sheffield
# -----------
# energy  requested_energy  measurement_time  xmu  I0  It  Ir
  6007.902  6007.900  0.500  2.147187  148.329832  17.326740  2.404252
  6017.947  6017.900  0.500  2.134021  148.524460  17.579424  2.463225
  6027.914  6027.900  0.500  2.121636  148.756484  17.826297  2.521318
  6037.913  6037.900  0.500  2.108252  148.976151  18.093171  2.583602
  6047.914  6047.900  0.500  2.095660  149.196677  18.349563  2.645141
  6057.912  6057.900  0.500  2.081987  149.133884  18.594350  2.705850
  6067.912  6067.900  0.500  2.069463  149.155109  18.831371  2.765620
  6077.912  6077.900  0.500  2.056807  149.413498  19.104242  2.831330
  6087.913  6087.900  0.500  2.043649  149.583974  19.379372  2.898817
  6097.893  6097.900  0.500  2.031072  149.853648  19.660027  2.966963
  6107.891  6107.900  0.500  2.017906  149.979384  19.937285  3.038952
  6117.893  6117.900  0.500  2.005081  150.190532  20.223068  3.109957
  6127.893  6127.900  0.500  1.993086  150.415951  20.497810  3.180348
  6137.901  6137.900  0.500  1.981042  150.641876  20.777346  3.252714
  6147.899  6147.900  0.500  1.968616  150.821176  21.062185  3.326010
  6157.895  6157.900  0.500  1.956481  150.909361  21.331787  3.396500
  6167.894  6167.900  0.500  1.944550  151.031976  21.605358  3.467652
  6177.899  6177.900  0.500  1.933068  151.263632  21.888388  3.539697
  6179.899  6179.900  0.500  1.930770  151.312309  21.945811  3.554330
  6181.902  6181.900  0.500  1.928523  151.346609  22.000167  3.567473
  6183.897  6183.900  0.500  1.926326  151.393614  22.055395  3.580542
  6185.895  6185.900  0.500  1.923892  151.392329  22.108946  3.593134
  6187.896  6187.900  0.500  1.922094  151.418174  22.152519  3.603959
  6189.892  6189.900  0.500  1.920212  151.439726  22.197406  3.613019
  6191.896  6191.900  0.500  1.918444  151.460476  22.239738  3.621416
  6193.888  6193.900  0.500  1.916646  151.490144  22.284134  3.628477
  6195.896  6195.900  0.500  1.915220  151.508695  22.318651  3.631851
  6197.899  6197.900  0.500  1.914347  151.517611  22.339468  3.630263
  6198.388  6198.400  0.500  1.914222  151.511068  22.341303  3.628481
  6198.886  6198.900  0.500  1.913909  151.507874  22.347819  3.626439
  6199.384  6199.400  0.500  1.913782  151.517150  22.352033  3.624323
  6199.883  6199.900  0.500  1.913628  151.526417  22.356823  3.621704
  6200.386  6200.400  0.500  1.913892  151.535133  22.352209  3.616212
  6200.888  6200.900  0.500  1.914390  151.527893  22.340023  3.609903
  6201.390  6201.400  0.500  1.914113  151.529820  22.346495  3.605644
  6201.885  6201.900  0.500  1.914513  151.523608  22.336641  3.597405
  6202.387  6202.400  0.500  1.914562  151.524007  22.335597  3.588880
  6202.886  6202.900  0.500  1.915903  151.526605  22.306061  3.574676
  6203.387  6203.400  0.500  1.916874  151.536768  22.285912  3.558866
  6203.894  6203.900  0.500  1.917524  151.546846  22.272905  3.542416
  6204.390  6204.400  0.500  1.918628  151.555916  22.249669  3.523147
  6204.890  6204.900  0.500  1.919884  151.556510  22.221814  3.500252
  6205.390  6205.400  0.500  1.921497  151.559357  22.186419  3.476320
  6205.891  6205.900  0.500  1.923579  151.567491  22.141473  3.450160
  6206.390  6206.400  0.500  1.925530  151.572389  22.099025  3.420646
  6206.895  6206.900  0.500  1.927508  151.571767  22.055252  3.388659
  6207.394  6207.400  0.500  1.930010  151.577685  22.001000  3.352756
  6207.896  6207.900  0.500  1.932739  151.577323  21.940995  3.313846
  6208.391  6208.400  0.500  1.936667  151.580946  21.855495  3.264906
  6208.896  6208.900  0.500  1.941373  151.581212  21.752942  3.204410
  6209.397  6209.400  0.500  1.947280  151.587811  21.625757  3.127259
  6209.894  6209.900  0.500  1.954689  151.595886  21.467258  3.026386
  6210.394  6210.400  0.500  1.962472  151.585681  21.299405  2.903739
  6210.891  6210.900  0.500  1.970266  151.578574  21.133052  2.760445
  6211.393  6211.400  0.500  1.977825  151.609897  20.978247  2.584499
  6211.895  6211.900  0.500  1.984721  151.604614  20.833343  2.378813
  6212.397  6212.400  0.500  1.990201  151.598122  20.718612  2.162507
  6212.896  6212.900  0.500  1.993751  151.604093  20.646002  1.952674
  6213.397  6213.400  0.500  1.996154  151.599610  20.595835  1.773315
  6213.893  6213.900  0.500  1.998215  151.602488  20.553831  1.648956
  6214.397  6214.400  0.500  1.999248  151.597573  20.531929  1.582564
  6214.898  6214.900  0.500  1.999835  151.599468  20.520146  1.577550
  6215.398  6215.400  0.500  1.999111  151.594319  20.534305  1.627742
  6215.897  6215.900  0.500  1.997251  151.601392  20.573503  1.717131
  6216.397  6216.400  0.500  1.994858  151.604157  20.623173  1.832845
  6216.898  6216.900  0.500  1.991238  151.601628  20.697601  1.959930
  6217.403  6217.400  0.500  1.987282  151.612149  20.781083  2.084922
  6217.902  6217.900  0.500  1.983123  151.617961  20.868509  2.206740
  6218.401  6218.400  0.500  1.978176  151.609909  20.970872  2.320584
  6218.901  6218.900  0.500  1.973868  151.616977  21.062394  2.420133
  6219.399  6219.400  0.500  1.969582  151.628111  21.154429  2.511335
  6219.904  6219.900  0.500  1.965177  151.626245  21.247549  2.594127
  6220.403  6220.400  0.500  1.961401  151.628622  21.328271  2.662404
  6220.902  6220.900  0.500  1.957927  151.633977  21.403239  2.722873
  6221.400  6221.400  0.500  1.954757  151.628144  21.470366  2.772575
  6221.903  6221.900  0.500  1.952038  151.632582  21.529468  2.812551
  6222.402  6222.400  0.500  1.949559  151.639773  21.583921  2.842790
  6222.907  6222.900  0.500  1.947521  151.641595  21.628226  2.866144
  6223.405  6223.400  0.500  1.946047  151.643408  21.660378  2.879751
  6223.902  6223.900  0.500  1.944821  151.644062  21.687040  2.889021
  6224.406  6224.400  0.500  1.943119  151.651342  21.725031  2.896497
  6224.899  6224.900  0.500  1.942109  151.639860  21.745333  2.901706
  6225.402  6225.400  0.500  1.941112  151.644089  21.767642  2.905581
  6225.905  6225.900  0.500  1.940196  151.649883  21.788414  2.910657
  6226.406  6226.400  0.500  1.939556  151.662807  21.804227  2.916110
  6226.904  6226.900  0.500  1.938583  151.666693  21.826018  2.923970
  6227.404  6227.400  0.500  1.938221  151.654357  21.832133  2.931172
  6227.901  6227.900  0.500  1.938265  151.677142  21.834452  2.939351
  6228.396  6228.400  0.500  1.937862  151.679114  21.843540  2.949289
  6228.901  6228.900  0.500  1.937529  151.675729  21.850326  2.958974
  6229.403  6229.400  0.500  1.936800  151.670489  21.865502  2.970289
  6229.901  6229.900  0.500  1.936165  151.681401  21.880978  2.979395
  6230.400  6230.400  0.500  1.935641  151.677482  21.891863  2.986946
  6230.901  6230.900  0.500  1.935292  151.686275  21.900787  2.992322
  6231.398  6231.400  0.500  1.935429  151.697810  21.899448  2.994241
  6231.900  6231.900  0.500  1.935306  151.697446  21.902092  2.995279
  6232.402  6232.400  0.500  1.934454  151.693321  21.920169  2.996902
  6232.903  6232.900  0.500  1.933667  151.697140  21.937971  2.995369
  6233.895  6233.890  0.500  1.932427  151.694188  21.964764  2.985375
  6234.900  6234.890  0.500  1.931085  151.689771  21.993624  2.967781
  6235.922  6235.910  0.500  1.929066  151.691970  22.038380  2.949510
  6236.971  6236.960  0.500  1.928248  151.695427  22.056932  2.927690
  6238.041  6238.020  0.500  1.926920  151.711215  22.088530  2.908553
  6239.092  6239.100  0.500  1.926129  151.697849  22.104077  2.888397
  6240.192  6240.200  0.500  1.925997  151.717154  22.109793  2.867333
  6241.317  6241.320  0.500  1.926149  151.701070  22.104087  2.845296
  6242.455  6242.460  0.500  1.926395  151.726434  22.102361  2.827405
  6243.613  6243.610  0.500  1.927193  151.729115  22.085113  2.810091
  6244.790  6244.790  0.500  1.927845  151.729722  22.070799  2.798882
  6245.982  6245.980  0.500  1.927959  151.719373  22.066792  2.795469
  6247.201  6247.200  0.500  1.928035  151.715124  22.064484  2.798274
  6248.432  6248.430  0.500  1.927204  151.727269  22.084612  2.810004
  6249.687  6249.680  0.500  1.925779  151.743618  22.118485  2.827045
  6250.955  6250.950  0.500  1.923905  151.756364  22.161836  2.848414
  6252.247  6252.240  0.500  1.921455  151.757905  22.216418  2.875565
  6253.554  6253.550  0.500  1.918594  151.735624  22.276805  2.903479
  6254.889  6254.880  0.500  1.915884  151.727264  22.336015  2.934668
  6256.235  6256.230  0.500  1.912970  151.741186  22.403246  2.967789
  6257.606  6257.600  0.500  1.909908  151.739543  22.471722  3.001761
  6258.987  6258.980  0.500  1.907686  151.756193  22.524174  3.030479
  6260.393  6260.390  0.500  1.905444  151.744591  22.573001  3.055003
  6261.813  6261.810  0.500  1.903548  151.724890  22.612918  3.074234
  6263.255  6263.250  0.500  1.901561  151.746828  22.661162  3.090120
  6264.719  6264.710  0.500  1.899629  151.759487  22.706879  3.102072
  6266.194  6266.190  0.500  1.897981  151.776657  22.746915  3.110613
  6267.692  6267.690  0.500  1.896406  151.786644  22.784263  3.118485
  6269.216  6269.210  0.500  1.894439  151.803543  22.831652  3.128083
  6270.752  6270.750  0.500  1.892639  151.805021  22.873021  3.135296
  6272.319  6272.310  0.500  1.891091  151.798416  22.907453  3.140481
  6273.883  6273.880  0.500  1.889548  151.794545  22.942246  3.142995
  6275.489  6275.480  0.500  1.888190  151.804411  22.974917  3.143373
  6277.095  6277.090  0.500  1.886768  151.813314  23.008957  3.142982
  6278.737  6278.730  0.500  1.885195  151.825208  23.046974  3.142282
  6280.386  6280.380  0.500  1.883919  151.815088  23.074875  3.141027
  6282.053  6282.050  0.500  1.882292  151.827188  23.114281  3.139668
  6283.750  6283.740  0.500  1.880562  151.813761  23.152258  3.137005
  6285.457  6285.450  0.500  1.878692  151.800175  23.193516  3.134818
  6287.186  6287.180  0.500  1.876859  151.799809  23.236020  3.133411
  6288.937  6288.930  0.500  1.874831  151.796184  23.282639  3.137864
  6290.695  6290.690  0.500  1.873528  151.793534  23.312580  3.144442
  6292.490  6292.480  0.500  1.872085  151.785903  23.345067  3.154128
  6294.290  6294.280  0.500  1.870878  151.787750  23.373561  3.164030
  6296.119  6296.110  0.500  1.868919  151.791334  23.419946  3.178001
  6297.958  6297.950  0.500  1.866694  151.783851  23.470960  3.193912
  6299.818  6299.810  0.500  1.864723  152.314784  23.599514  3.221286
  6301.697  6301.690  0.500  1.862236  152.301690  23.656259  3.243165
  6303.599  6303.590  0.500  1.860074  152.284912  23.704837  3.263733
  6305.520  6305.510  0.500  1.857972  152.294451  23.756205  3.283780
  6307.457  6307.450  0.500  1.855605  152.284102  23.810883  3.303779
  6309.418  6309.410  0.500  1.853410  152.286378  23.863568  3.323956
  6311.389  6311.380  0.500  1.851190  152.262076  23.912772  3.342923
  6313.387  6313.380  0.500  1.849061  152.284642  23.967294  3.361909
  6315.397  6315.390  0.500  1.846797  152.280990  24.021054  3.377192
  6317.427  6317.420  0.500  1.844494  152.277265  24.075837  3.389541
  6319.489  6319.480  0.500  1.842132  152.247346  24.128045  3.399597
  6321.559  6321.550  0.500  1.839537  152.210020  24.184789  3.410997
  6323.647  6323.640  0.500  1.837282  152.213975  24.240016  3.421981
  6325.756  6325.750  0.500  1.835051  152.216867  24.294632  3.432308
  6327.889  6327.880  0.500  1.832777  152.209791  24.348793  3.443746
  6330.032  6330.020  0.500  1.830294  152.201112  24.407948  3.456723
  6332.200  6332.190  0.500  1.827423  152.198299  24.477677  3.471143
  6334.391  6334.380  0.500  1.825262  152.187336  24.528867  3.483297
  6336.588  6336.580  0.500  1.823307  152.163824  24.573048  3.492448
  6338.806  6338.800  0.500  1.820737  152.161990  24.635989  3.505240
  6341.059  6341.050  0.500  1.818194  152.134375  24.694243  3.517155
  6343.318  6343.310  0.500  1.815862  152.122398  24.749961  3.530112
  6345.598  6345.590  0.500  1.813751  152.115963  24.801197  3.540041
  6347.902  6347.890  0.500  1.811727  152.104098  24.849511  3.547658
  6350.219  6350.210  0.500  1.809493  152.083771  24.901756  3.555552
  6352.558  6352.550  0.500  1.806880  152.064433  24.963750  3.565343
  6354.909  6354.900  0.500  1.804492  152.051673  25.021328  3.576291
  6357.286  6357.280  0.500  1.802024  152.041302  25.081442  3.590147
  6359.679  6359.670  0.500  1.799693  152.011903  25.135102  3.606253
  6362.098  6362.090  0.500  1.797118  151.999194  25.197817  3.625099
  6364.528  6364.520  0.500  1.794484  151.970445  25.259504  3.643562
  6366.978  6366.970  0.500  1.791636  151.950831  25.328272  3.665384
  6369.462  6369.450  0.500  1.788763  151.926866  25.397138  3.688227
  6371.946  6371.940  0.500  1.786543  151.906495  25.450171  3.709602
  6374.460  6374.450  0.500  1.783938  151.867664  25.510020  3.731719
  6376.979  6376.970  0.500  1.781372  151.852941  25.573089  3.753543
  6379.529  6379.520  0.500  1.778295  151.835024  25.648861  3.775308
  6382.094  6382.090  0.500  1.776002  151.811993  25.703855  3.792585
  6384.674  6384.670  0.500  1.773273  151.790399  25.770418  3.810751
  6387.282  6387.280  0.500  1.770704  151.782390  25.835347  3.826549
  6389.906  6389.900  0.500  1.767671  151.736063  25.905918  3.844228
  6392.558  6392.550  0.500  1.764922  151.711375  25.973010  3.860967
  6395.218  6395.210  0.500  1.762345  151.686017  26.035675  3.874939
  6397.899  6397.890  0.500  1.759317  151.647193  26.107941  3.891941
  6400.599  6400.590  0.500  1.756381  151.613221  26.178849  3.908448
  6403.315  6403.310  0.500  1.753115  151.556101  26.254602  3.927999
  6406.058  6406.050  0.500  1.749997  151.513925  26.329262  3.946591
  6408.804  6408.800  0.500  1.747413  151.469824  26.389702  3.963989
  6411.587  6411.580  0.500  1.745045  151.450450  26.448863  3.981785
  6414.375  6414.370  0.500  1.742366  151.437164  26.517497  4.000991
  6417.196  6417.190  0.500  1.739311  151.383444  26.589201  4.019772
  6420.022  6420.020  0.500  1.736174  151.351430  26.667103  4.040284
  6422.872  6422.870  0.500  1.733224  151.286123  26.734331  4.059819
  6425.754  6425.750  0.500  1.730640  151.238385  26.795058  4.078311
  6428.644  6428.640  0.500  1.727448  151.159379  26.866686  4.097521
  6431.558  6431.550  0.500  1.724772  151.081649  26.924809  4.115190
  6434.478  6434.470  0.500  1.722232  150.990768  26.977050  4.130826
  6437.426  6437.420  0.500  1.719608  150.937390  27.038363  4.147580
  6440.399  6440.390  0.500  1.716372  150.916197  27.122193  4.168152
  6443.378  6443.370  0.500  1.713096  150.866384  27.202232  4.187163
  6446.384  6446.380  0.500  1.709967  150.810375  27.277341  4.207440
  6449.409  6449.400  0.500  1.706923  149.537998  27.129660  4.194465
  6452.454  6452.450  0.500  1.703891  150.642587  27.413045  4.248716
  6455.517  6455.510  0.500  1.700694  150.635823  27.499605  4.274636
  6458.596  6458.590  0.500  1.697361  148.140356  27.134321  4.229456
  6461.693  6461.690  0.500  1.694396  150.425983  27.634787  4.323066
  6464.815  6464.810  0.500  1.691206  147.818157  27.242448  4.275686
  6467.957  6467.950  0.500  1.688250  150.236677  27.770160  4.371001
  6471.104  6471.100  0.500  1.685156  150.232948  27.855528  4.396507
  6474.289  6474.280  0.500  1.681938  148.228225  27.572384  4.363650
  6477.477  6477.470  0.500  1.679542  150.023377  27.973274  4.437380
  6480.700  6480.690  0.500  1.676538  149.996856  28.052467  4.461110
  6483.936  6483.920  0.500  1.673280  149.933074  28.132034  4.483253
  6487.184  6487.170  0.500  1.670107  149.875328  28.210584  4.504435
  6490.460  6490.450  0.500  1.666906  149.815092  28.289643  4.526140
  6493.752  6493.740  0.500  1.663862  149.745576  28.362728  4.547506
  6497.061  6497.050  0.500  1.660493  149.653221  28.440881  4.568534
  6500.376  6500.370  0.500  1.657115  149.582898  28.523712  4.591432
  6503.727  6503.720  0.500  1.653718  149.503788  28.605627  4.617058
  6507.099  6507.090  0.500  1.650508  149.405631  28.678759  4.640908
  6510.480  6510.470  0.500  1.646901  149.313556  28.764655  4.667697
  6513.891  6513.880  0.500  1.643135  149.231126  28.857255  4.695847
  6517.310  6517.300  0.500  1.639848  149.159521  28.938363  4.722092
  6520.761  6520.750  0.500  1.637023  149.092347  29.007172  4.746582
  6524.218  6524.210  0.500  1.633552  148.971771  29.084482  4.772421
  6527.697  6527.690  0.500  1.630172  148.873548  29.163722  4.797333
  6531.199  6531.190  0.500  1.626920  148.778452  29.240021  4.822888
  6534.721  6534.710  0.500  1.623510  148.664547  29.317441  4.847814
  6538.262  6538.250  0.500  1.620175  148.570869  29.396838  4.873365
  6541.808  6541.800  0.500  1.616691  148.432615  29.471997  4.897622
  6545.382  6545.380  0.500  1.613346  148.309451  29.546209  4.923128
  6548.986  6548.980  0.500  1.610225  148.200229  29.616713  4.946901
  6552.599  6552.590  0.500  1.606803  148.063327  29.690788  4.971630
  6556.225  6556.220  0.500  1.603353  147.962831  29.773178  4.998817
  6559.888  6559.880  0.500  1.599804  147.836230  29.853459  5.026417
  6563.557  6563.550  0.500  1.596442  147.725950  29.931651  5.054595
  6567.245  6567.240  0.500  1.592730  147.609681  30.019336  5.084521
  6570.957  6570.950  0.500  1.589237  147.511970  30.104431  5.116234
  6574.691  6574.680  0.500  1.585904  147.407718  30.183576  5.145774
  6578.424  6578.420  0.500  1.582223  147.287795  30.270252  5.175958
  6582.201  6582.190  0.500  1.578444  147.148310  30.356091  5.206099
  6585.986  6585.980  0.500  1.574855  146.812015  30.395603  5.225323
  6589.792  6589.780  0.500  1.571416  146.880867  30.514603  5.260256
  6593.617  6593.610  0.500  1.567848  146.761070  30.598719  5.290583
  6597.458  6597.450  0.500  1.564152  146.625261  30.683580  5.319343
  6601.320  6601.310  0.500  1.560638  146.484130  30.761981  5.347941
  6605.198  6605.190  0.500  1.556943  146.348079  30.847161  5.377218
  6609.100  6609.090  0.500  1.553257  146.258158  30.942070  5.408557
  6613.023  6613.010  0.500  1.549781  146.122350  31.020968  5.436561
  6616.961  6616.950  0.500  1.546306  145.967461  31.095968  5.464711
  6620.919  6620.910  0.500  1.542772  145.816540  31.173780  5.493764
  6624.897  6624.880  0.500  1.539610  145.678134  31.242819  5.521232
  6628.915  6628.880  0.500  1.535701  145.496241  31.326021  5.553175
  6632.925  6632.890  0.500  1.531952  145.447576  31.433169  5.587781
  6636.964  6636.930  0.500  1.528183  145.320083  31.524195  5.621250
  6641.011  6640.980  0.500  1.524742  145.182285  31.602887  5.653622
  6645.083  6645.050  0.500  1.521060  145.054223  31.691469  5.686593
  6649.153  6649.140  0.500  1.517073  144.942190  31.793498  5.723474
  6653.278  6653.250  0.500  1.513311  144.836157  31.889995  5.757841
  6657.375  6657.380  0.500  1.509743  144.722171  31.978801  5.790739
  6661.545  6661.530  0.500  1.505967  144.604180  32.073613  5.824487
  6665.675  6665.690  0.500  1.502308  144.461056  32.159310  5.857875
  6669.865  6669.880  0.500  1.498635  144.314134  32.244818  5.890379
  6674.065  6674.080  0.500  1.495061  144.186180  32.331564  5.924506
  6678.350  6678.310  0.500  1.491491  144.040134  32.414330  5.959788
  6682.567  6682.550  0.500  1.487550  143.922167  32.515672  5.998118
  6686.805  6686.810  0.500  1.483718  143.814823  32.616169  6.033638
  6691.074  6691.090  0.500  1.479974  143.662709  32.703895  6.067025
  6695.375  6695.390  0.500  1.476473  143.493908  32.780021  6.100421
  6699.692  6699.710  0.500  1.472619  143.332298  32.869557  6.134119
