# XDI/1.0 BlueSky/1.10.0 BMM/2023-1.0-py310-tiled
# Beamline.name: BMM (06BM) -- Beamline for Materials Measurement (NIST)
# Beamline.xray_source: NSLS-II three-pole wiggler
# Beamline.collimation: paraboloid mirror, 5 nm Rh on 30 nm Pt
# Beamline.focusing: not in use
# Beamline.harmonic_rejection: flat mirror, Si stripe, pitch = 7.0 mrad relative to beam
# Beamline.software: Bluesky 1.10.0, Ophyd 1.7.0, DataBroker 2.0.0b13, Python 3.10.8, 2023-1.0-py310-tiled
# Detector.I0: 10 cm N2
# Detector.I1: 25 cm N2
# Detector.I2: 25 cm N2
# Element.symbol: Nd
# Element.edge: L1
# Element.reference: Nd
# Element.reference_material: Nd2O3
# Facility.name: NSLS-II
# Facility.energy: 3.0
# Facility.current: 400.7
# Facility.mode: top-off
# Facility.GUP: 123456
# Facility.SAF: 301027
# Facility.cycle: 2023-2
# Mono.name: Si(111)
# Mono.d_spacing: 3.1351860
# Mono.encoder_resolution: 0.0000050 deg/ct
# Mono.angle_offset: 16.0754326 deg
# Mono.scan_mode: pseudo channel cut
# Mono.scan_type: step
# Mono.direction: forward in energy
# Sample.name: Nd2Zr2O7
# Sample.prep: Powder in PEG pellet
# Sample.x: 149.848 mm
# Sample.y: 114.690 mm
# Sample.SDD_position: 205.000 mm
# Scan.experimenters: Bruce Ravel
# Scan.edge_energy: 7126.0
# Scan.start_time: 2023-05-08T20:17:57
# Scan.end_time: 2023-05-08T20:23:47
# Scan.transient_id: 75576
# Scan.uid: 004f7de9-96d1-459a-8691-6101d5db2955
# Scan.plot_hint: ln(I0/It)  --  ln($5/$6)
# Column.1: energy eV
# Column.2: requested_energy eV
# Column.3: measurement_time seconds
# Column.4: xmu 
# Column.5: I0 nA
# Column.6: It nA
# Column.7: Ir nA
# ///////////
# sample courtesy Martin Stennett, University of Sheffield
# -----------
# energy  requested_energy  measurement_time  xmu  I0  It  Ir
  6926.012  6926.000  0.500  2.005286  150.491752  20.259477  3.927851
  6936.012  6936.000  0.500  1.995289  150.489330  20.462688  3.991121
  6946.015  6946.000  0.500  1.984687  150.572265  20.692191  4.059974
  6955.998  6956.000  0.500  1.974934  150.621681  20.901847  4.122734
  6966.012  6966.000  0.500  1.965861  150.670688  21.099209  4.185448
  6976.030  6976.000  0.500  1.956116  150.691691  21.308793  4.256284
  6986.012  6986.000  0.500  1.946221  150.669897  21.517587  4.327773
  6996.011  6996.000  0.500  1.936309  150.680701  21.733492  4.396764
  7006.023  7006.000  0.500  1.926743  150.667952  21.940516  4.463029
  7016.022  7016.000  0.500  1.917529  150.617011  22.136125  4.527036
  7026.015  7026.000  0.500  1.908175  150.593050  22.340601  4.597469
  7036.019  7036.000  0.500  1.898375  150.522572  22.550064  4.668752
  7046.014  7046.000  0.500  1.888874  150.497069  22.761476  4.739653
  7056.015  7056.000  0.500  1.879631  150.450331  22.965695  4.807948
  7066.015  7066.000  0.500  1.870605  150.356448  23.159466  4.875353
  7076.301  7076.000  0.500  1.861600  149.676572  23.263294  4.924509
  7085.980  7086.000  0.500  1.852623  150.095651  23.538794  5.013847
  7095.984  7096.000  0.500  1.843210  150.025672  23.750338  5.088515
  7097.984  7098.000  0.500  1.841522  150.006010  23.787344  5.102098
  7099.984  7100.000  0.500  1.839789  150.024335  23.831510  5.115991
  7101.988  7102.000  0.500  1.837974  149.957342  23.864151  5.129108
  7103.988  7104.000  0.500  1.836338  149.948241  23.901766  5.142127
  7105.987  7106.000  0.500  1.834742  149.925669  23.936347  5.154995
  7107.987  7108.000  0.500  1.833119  149.910860  23.972840  5.167915
  7109.988  7110.000  0.500  1.831522  149.841346  24.000021  5.178774
  7111.990  7112.000  0.500  1.829867  149.733472  24.022477  5.189141
  7113.989  7114.000  0.500  1.828508  149.589421  24.032010  5.195787
  7115.987  7116.000  0.500  1.827268  149.568255  24.058409  5.205434
  7116.481  7116.500  0.500  1.827003  149.553081  24.062348  5.207079
  7116.983  7117.000  0.500  1.826651  149.509332  24.063773  5.208620
  7117.479  7117.500  0.500  1.826148  149.446335  24.065754  5.211284
  7117.982  7118.000  0.500  1.825539  149.462188  24.082965  5.214459
  7118.487  7118.500  0.500  1.825236  149.403667  24.080833  5.216600
  7118.983  7119.000  0.500  1.824565  149.371926  24.091862  5.218807
  7119.480  7119.500  0.500  1.824827  149.349385  24.081919  5.217149
  7119.982  7120.000  0.500  1.824506  149.334271  24.087206  5.220078
  7120.488  7120.500  0.500  1.824041  149.301819  24.093182  5.222107
  7120.984  7121.000  0.500  1.824178  149.269441  24.084669  5.220793
  7121.485  7121.500  0.500  1.823818  149.250182  24.090210  5.222773
  7121.988  7122.000  0.500  1.823525  149.230283  24.094075  5.224168
  7122.487  7122.500  0.500  1.823124  149.204708  24.099604  5.226735
  7122.989  7123.000  0.500  1.822816  149.165311  24.100669  5.226661
  7123.488  7123.500  0.500  1.822653  149.142937  24.100961  5.227558
  7123.985  7124.000  0.500  1.822382  149.099932  24.100541  5.227527
  7124.486  7124.500  0.500  1.822396  149.090350  24.098669  5.227508
  7124.992  7125.000  0.500  1.822383  149.053070  24.092958  5.227489
  7125.491  7125.500  0.500  1.822268  149.032706  24.092425  5.226477
  7125.995  7126.000  0.500  1.822204  148.969269  24.083707  5.223918
  7126.497  7126.500  0.500  1.822223  148.960816  24.081887  5.223954
  7126.992  7127.000  0.500  1.822888  148.914274  24.058378  5.218102
  7127.494  7127.500  0.500  1.823257  148.889480  24.045493  5.214203
  7127.990  7128.000  0.500  1.823861  148.860150  24.026238  5.208551
  7128.487  7128.500  0.500  1.824406  148.826560  24.007722  5.202540
  7128.991  7129.000  0.500  1.825266  148.791382  23.981417  5.194184
  7129.496  7129.500  0.500  1.826093  148.734483  23.952419  5.183626
  7129.994  7130.000  0.500  1.827711  148.694543  23.907295  5.169399
  7130.500  7130.500  0.500  1.829081  148.646206  23.866781  5.154684
  7130.994  7131.000  0.500  1.830512  148.619168  23.828336  5.140798
  7131.494  7131.500  0.500  1.832146  148.561424  23.780192  5.125931
  7131.990  7132.000  0.500  1.833795  148.540731  23.737682  5.112168
  7132.495  7132.500  0.500  1.835249  148.521853  23.700191  5.100798
  7133.000  7133.000  0.500  1.836673  148.492624  23.661807  5.088806
  7133.498  7133.500  0.500  1.838128  148.509762  23.630142  5.079923
  7133.997  7134.000  0.500  1.839515  148.489932  23.594224  5.066741
  7134.495  7134.500  0.500  1.840857  148.517362  23.566939  5.057328
  7134.992  7135.000  0.500  1.842312  148.494841  23.529099  5.042081
  7135.497  7135.500  0.500  1.844250  148.511537  23.486183  5.026098
  7135.998  7136.000  0.500  1.845926  148.504155  23.445698  5.009935
  7136.503  7136.500  0.500  1.847881  148.419684  23.386591  4.987637
  7136.998  7137.000  0.500  1.849834  148.497155  23.353155  4.969231
  7137.499  7137.500  0.500  1.852040  148.520900  23.305419  4.947831
  7137.994  7138.000  0.500  1.854477  148.498627  23.245195  4.920063
  7138.497  7138.500  0.500  1.857094  148.472959  23.180431  4.891435
  7138.997  7139.000  0.500  1.859790  148.470678  23.117683  4.860675
  7139.502  7139.500  0.500  1.862840  148.466898  23.046692  4.827830
  7140.000  7140.000  0.500  1.866050  148.476906  22.974372  4.794148
  7140.510  7140.500  0.500  1.869316  148.454549  22.896012  4.757823
  7141.003  7141.000  0.500  1.872011  148.454459  22.834369  4.725675
  7141.503  7141.500  0.500  1.874753  148.450831  22.771288  4.694231
  7142.002  7142.000  0.500  1.877189  148.445536  22.715083  4.665582
  7142.500  7142.500  0.500  1.879510  148.441338  22.661772  4.638966
  7143.004  7143.000  0.500  1.881377  148.455811  22.621710  4.617883
  7143.506  7143.500  0.500  1.882903  148.457780  22.587512  4.601400
  7144.002  7144.000  0.500  1.883670  148.447057  22.568578  4.591532
  7144.506  7144.500  0.500  1.884056  148.462286  22.562183  4.586436
  7145.004  7145.000  0.500  1.883936  148.454863  22.563759  4.588209
  7145.498  7145.500  0.500  1.883065  148.437690  22.580801  4.594471
  7145.998  7146.000  0.500  1.882182  148.429670  22.599523  4.602888
  7146.496  7146.500  0.500  1.880976  148.413200  22.624302  4.614903
  7146.996  7147.000  0.500  1.879614  148.410082  22.654663  4.629957
  7147.499  7147.500  0.500  1.878177  148.409922  22.687195  4.645816
  7148.000  7148.000  0.500  1.876730  148.397635  22.718169  4.662104
  7148.504  7148.500  0.500  1.875393  148.401955  22.749237  4.678501
  7149.001  7149.000  0.500  1.873717  148.389360  22.785454  4.695880
  7149.499  7149.500  0.500  1.872179  148.411494  22.823929  4.713022
  7149.998  7150.000  0.500  1.870511  148.384985  22.857943  4.729636
  7150.497  7150.500  0.500  1.868831  148.374880  22.894828  4.745284
  7151.002  7151.000  0.500  1.867090  148.386133  22.936458  4.762068
  7151.996  7151.990  0.500  1.864158  148.358057  22.999459  4.787815
  7152.994  7152.990  0.500  1.861971  148.362874  23.050565  4.806115
  7154.023  7154.010  0.500  1.860762  148.334398  23.074022  4.820745
  7155.067  7155.060  0.500  1.859668  148.341238  23.100338  4.832592
  7156.129  7156.120  0.500  1.858945  148.339459  23.116760  4.843106
  7157.204  7157.200  0.500  1.858192  148.324283  23.131814  4.854196
  7158.313  7158.300  0.500  1.856920  148.333786  23.162743  4.870206
  7159.432  7159.420  0.500  1.854724  148.296495  23.207817  4.890218
  7160.569  7160.560  0.500  1.851976  148.282727  23.269524  4.913811
  7161.724  7161.710  0.500  1.848982  148.237308  23.332159  4.938825
  7162.906  7162.890  0.500  1.845890  148.237229  23.404386  4.963919
  7164.090  7164.080  0.500  1.842680  148.170025  23.469008  4.987402
  7165.307  7165.300  0.500  1.839616  148.126344  23.534081  5.008453
  7166.543  7166.530  0.500  1.837079  148.103898  23.590275  5.027207
  7167.787  7167.780  0.500  1.834785  148.063153  23.637957  5.041714
  7169.060  7169.050  0.500  1.832817  148.044008  23.681457  5.055678
  7170.353  7170.340  0.500  1.831640  148.030144  23.707128  5.063422
  7171.655  7171.650  0.500  1.830875  148.004232  23.721122  5.067381
  7172.985  7172.980  0.500  1.830710  147.964069  23.718609  5.064113
  7174.345  7174.330  0.500  1.830933  147.945616  23.710345  5.060355
  7175.703  7175.700  0.500  1.831678  147.925210  23.689423  5.050437
  7177.088  7177.080  0.500  1.832247  147.880247  23.668758  5.041171
  7178.500  7178.490  0.500  1.833062  147.882687  23.649854  5.033450
  7179.920  7179.910  0.500  1.834125  147.867183  23.622255  5.025168
  7181.359  7181.350  0.500  1.834017  147.853624  23.622649  5.024407
  7182.815  7182.810  0.500  1.833339  147.834588  23.635614  5.026749
  7184.303  7184.290  0.500  1.831893  147.797791  23.663942  5.032503
  7185.802  7185.790  0.500  1.829913  147.759573  23.704697  5.042321
  7187.312  7187.310  0.500  1.828014  147.760647  23.749934  5.055724
  7188.864  7188.850  0.500  1.825966  147.695918  23.788207  5.066747
  7190.417  7190.410  0.500  1.824299  147.703809  23.829151  5.078891
  7191.992  7191.980  0.500  1.822993  145.204522  23.456563  5.003325
  7193.593  7193.580  0.500  1.821961  147.403205  23.836332  5.087662
  7195.200  7195.190  0.500  1.820631  147.496806  23.883210  5.102468
  7196.842  7196.830  0.500  1.819040  147.482285  23.918878  5.117354
  7198.484  7198.480  0.500  1.817251  147.452444  23.956855  5.132212
  7200.164  7200.150  0.500  1.815465  147.407522  23.992385  5.147862
  7201.848  7201.840  0.500  1.813592  147.380831  24.032996  5.166772
  7203.561  7203.550  0.500  1.811669  147.338483  24.072340  5.186493
  7205.292  7205.280  0.500  1.810029  147.297676  24.105169  5.206459
  7207.042  7207.030  0.500  1.808114  147.264090  24.145875  5.226283
  7208.797  7208.790  0.500  1.806255  147.218707  24.183351  5.244780
  7210.600  7210.580  0.500  1.804580  147.150894  24.212739  5.260351
  7212.394  7212.380  0.500  1.802968  147.105083  24.244240  5.275605
  7214.218  7214.210  0.500  1.801149  147.092567  24.286308  5.292010
  7216.068  7216.050  0.500  1.799131  147.046411  24.327746  5.307344
  7217.918  7217.910  0.500  1.797434  146.979459  24.357974  5.318102
  7219.805  7219.790  0.500  1.795630  147.503815  24.488993  5.351613
  7221.702  7221.690  0.500  1.793840  147.456233  24.524952  5.363536
  7223.624  7223.610  0.500  1.791803  147.426771  24.570048  5.377298
  7225.560  7225.550  0.500  1.789983  147.326076  24.598003  5.386404
  7227.522  7227.510  0.500  1.788087  145.653994  24.364972  5.339174
  7229.501  7229.480  0.500  1.786285  147.485851  24.715903  5.416845
  7231.494  7231.480  0.500  1.784657  147.407702  24.743062  5.425489
  7233.508  7233.490  0.500  1.782935  147.363611  24.778302  5.437784
  7235.532  7235.520  0.500  1.780924  147.316964  24.820319  5.451957
  7237.600  7237.580  0.500  1.778911  147.278934  24.863897  5.467710
  7239.657  7239.650  0.500  1.777087  147.232955  24.901524  5.482485
  7241.754  7241.740  0.500  1.775335  147.216544  24.942417  5.499676
  7243.863  7243.850  0.500  1.773771  147.052473  24.953610  5.508827
  7245.992  7245.980  0.500  1.772218  146.502572  24.898944  5.502613
  7248.137  7248.120  0.500  1.770517  147.001689  25.026285  5.537207
  7250.301  7250.290  0.500  1.768518  146.985868  25.073664  5.553059
  7252.492  7252.480  0.500  1.766793  146.854686  25.094552  5.564152
  7254.692  7254.680  0.500  1.764895  144.614077  24.758627  5.493920
  7256.905  7256.900  0.500  1.762970  147.024881  25.219867  5.603462
  7259.167  7259.150  0.500  1.761306  146.853170  25.232347  5.613941
  7261.423  7261.410  0.500  1.759357  146.457494  25.213469  5.614779
  7263.706  7263.690  0.500  1.757535  139.347838  24.033246  5.361882
  7266.008  7265.990  0.500  1.755835  146.079131  25.237058  5.633827
  7268.320  7268.310  0.500  1.753923  147.239640  25.486226  5.697549
  7270.663  7270.650  0.500  1.751866  147.213607  25.534193  5.717283
  7273.017  7273.000  0.500  1.749645  146.992098  25.552465  5.731503
  7275.390  7275.380  0.500  1.747401  147.219435  25.649477  5.761243
  7277.783  7277.770  0.500  1.745153  147.212229  25.705938  5.783306
  7280.214  7280.190  0.500  1.742828  147.176439  25.759513  5.805095
  7282.632  7282.620  0.500  1.740693  147.113604  25.803538  5.824938
  7285.080  7285.070  0.500  1.738398  145.239235  25.533326  5.771689
  7287.565  7287.550  0.500  1.736284  146.872158  25.875027  5.857581
  7290.056  7290.040  0.500  1.734507  146.896660  25.925385  5.876657
  7292.561  7292.550  0.500  1.732265  146.860240  25.977115  5.895978
  7295.081  7295.070  0.500  1.730012  146.829865  26.030336  5.914124
  7297.639  7297.620  0.500  1.728037  146.743661  26.066472  5.929368
  7300.205  7300.190  0.500  1.726041  146.520580  26.078864  5.938433
  7302.783  7302.770  0.500  1.723949  146.867885  26.195403  5.971424
  7305.396  7305.380  0.500  1.722042  146.783013  26.230240  5.986313
  7308.016  7308.000  0.500  1.719826  146.678341  26.269694  6.002473
  7310.665  7310.650  0.500  1.717334  146.703826  26.339828  6.025555
  7313.321  7313.310  0.500  1.715191  146.642867  26.385344  6.043084
  7316.006  7315.990  0.500  1.712696  146.534832  26.431793  6.063344
  7318.706  7318.690  0.500  1.710299  146.540657  26.496263  6.086866
  7321.425  7321.410  0.500  1.707764  146.462335  26.549336  6.108769
  7324.160  7324.150  0.500  1.705347  146.430566  26.607798  6.133398
  7326.919  7326.900  0.500  1.702959  146.381999  26.662578  6.153990
  7329.690  7329.680  0.500  1.700839  146.340815  26.711623  6.174740
  7332.488  7332.470  0.500  1.698586  146.272288  26.759346  6.195624
  7335.306  7335.290  0.500  1.696045  146.197056  26.813625  6.217119
  7338.129  7338.120  0.500  1.693430  145.932129  26.835129  6.230215
  7340.987  7340.970  0.500  1.691050  145.951731  26.902684  6.256186
  7343.862  7343.850  0.500  1.688717  145.988480  26.972296  6.281348
  7346.745  7346.740  0.500  1.686448  145.963519  27.028960  6.304136
  7349.653  7349.650  0.500  1.684239  145.916948  27.080096  6.326079
  7352.584  7352.570  0.500  1.682170  145.832201  27.120407  6.345611
  7355.529  7355.520  0.500  1.679794  145.825099  27.183614  6.369671
  7358.497  7358.490  0.500  1.677483  145.755791  27.233543  6.391856
  7361.477  7361.470  0.500  1.675027  145.674942  27.285375  6.415325
  7364.489  7364.480  0.500  1.672629  145.593384  27.335562  6.437291
  7367.507  7367.500  0.500  1.669919  145.551440  27.401839  6.464807
  7370.561  7370.550  0.500  1.667321  145.490077  27.461556  6.490004
  7373.623  7373.610  0.500  1.664742  145.381542  27.511939  6.512206
  7376.696  7376.690  0.500  1.662451  145.350392  27.569108  6.537477
  7379.800  7379.790  0.500  1.659655  145.292383  27.635266  6.562936
  7382.916  7382.910  0.500  1.657038  145.233591  27.696491  6.587842
  7386.060  7386.050  0.500  1.654449  145.179001  27.757834  6.612541
  7389.210  7389.200  0.500  1.651952  145.114239  27.814822  6.634496
  7392.388  7392.380  0.500  1.649331  145.069383  27.879214  6.660362
  7395.582  7395.570  0.500  1.646448  145.003610  27.947013  6.686189
  7398.803  7398.790  0.500  1.644218  144.923772  27.993994  6.707885
  7402.038  7402.020  0.500  1.641735  144.829489  28.045335  6.730440
  7405.281  7405.270  0.500  1.639285  144.790704  28.106603  6.755178
  7408.559  7408.550  0.500  1.636346  144.704052  28.172444  6.781435
  7411.855  7411.840  0.500  1.633612  144.644232  28.237892  6.809434
  7415.160  7415.150  0.500  1.630663  144.549043  28.302657  6.837043
  7418.483  7418.470  0.500  1.627967  144.480083  28.365540  6.864263
  7421.832  7421.820  0.500  1.625350  144.408010  28.425676  6.891966
  7425.210  7425.190  0.500  1.622477  144.318485  28.489785  6.918274
  7428.578  7428.570  0.500  1.619750  144.219098  28.547917  6.946003
  7431.990  7431.980  0.500  1.616967  144.128205  28.609435  6.973107
  7435.418  7435.400  0.500  1.614344  144.048811  28.668768  6.999693
  7438.863  7438.850  0.500  1.611504  143.915650  28.723733  7.024774
  7442.331  7442.310  0.500  1.608881  143.776075  28.771227  7.049005
  7445.808  7445.790  0.500  1.606191  140.965466  28.284772  6.943514
  7449.304  7449.290  0.500  1.603572  143.711155  28.911335  7.107957
  7452.826  7452.810  0.500  1.600888  143.264414  28.898909  7.117025
  7456.364  7456.350  0.500  1.598125  143.550533  29.036747  7.161910
  7459.933  7459.900  0.500  1.595406  140.119812  28.419974  7.019927
  7463.511  7463.480  0.500  1.592638  143.344222  29.154533  7.217220
  7467.102  7467.080  0.500  1.589655  142.293738  29.027364  7.197338
  7470.706  7470.690  0.500  1.586675  143.297531  29.319366  7.281909
  7474.340  7474.320  0.500  1.583920  143.168592  29.373806  7.309858
  7477.998  7477.980  0.500  1.581043  143.046182  29.433224  7.338331
  7481.668  7481.650  0.500  1.578155  142.930657  29.494520  7.366977
  7485.358  7485.340  0.500  1.575050  142.816510  29.562621  7.397704
  7489.069  7489.050  0.500  1.572400  142.714220  29.619839  7.425058
  7492.802  7492.780  0.500  1.569357  142.633462  29.693287  7.455552
  7496.540  7496.520  0.500  1.566582  142.529977  29.754196  7.484815
  7500.303  7500.290  0.500  1.563489  142.432491  29.825967  7.516157
  7504.098  7504.080  0.500  1.560796  142.314575  29.881623  7.543505
  7507.893  7507.880  0.500  1.557748  142.212273  29.951311  7.574805
  7511.730  7511.710  0.500  1.554635  142.087753  30.018389  7.604982
  7515.567  7515.550  0.500  1.551665  141.934605  30.075219  7.632900
  7519.424  7519.410  0.500  1.548573  141.857366  30.151935  7.667757
  7523.314  7523.290  0.500  1.545775  141.721603  30.207489  7.695654
  7527.211  7527.190  0.500  1.543204  141.607329  30.260821  7.723513
  7531.129  7531.110  0.500  1.540469  141.465233  30.313243  7.752124
  7535.042  7535.050  0.500  1.537380  141.327375  30.377392  7.782028
  7539.031  7539.010  0.500  1.534453  141.203429  30.439719  7.811908
  7542.991  7542.980  0.500  1.531153  141.092820  30.516432  7.848274
  7546.965  7546.980  0.500  1.527962  140.952769  30.583566  7.881158
  7550.987  7550.990  0.500  1.524560  140.823395  30.659627  7.915547
  7555.026  7555.030  0.500  1.521736  140.694383  30.718161  7.945788
  7559.071  7559.080  0.500  1.518614  140.536747  30.779680  7.977549
  7563.172  7563.150  0.500  1.515562  140.433628  30.851127  8.011515
  7567.239  7567.240  0.500  1.512444  140.308336  30.919857  8.044556
  7571.384  7571.350  0.500  1.509396  140.143715  30.977858  8.073485
  7575.508  7575.480  0.500  1.506385  139.981819  31.035368  8.104975
  7579.650  7579.630  0.500  1.503341  139.812109  31.092230  8.134972
  7583.811  7583.790  0.500  1.500390  139.646542  31.147220  8.166101
  7587.957  7587.980  0.500  1.497132  139.487973  31.213357  8.199354
  7592.177  7592.180  0.500  1.494038  139.289523  31.265529  8.228235
  7596.392  7596.410  0.500  1.491318  139.126106  31.313925  8.257839
  7600.641  7600.650  0.500  1.488388  138.678517  31.304772  8.271280
  7604.934  7604.910  0.500  1.485311  138.292931  31.313944  8.290058
  7609.211  7609.190  0.500  1.482009  138.053139  31.363015  8.319954
  7613.494  7613.490  0.500  1.478440  137.944957  31.450505  8.359663
  7617.823  7617.810  0.500  1.475191  137.901335  31.542861  8.400016
  7622.169  7622.150  0.500  1.472044  137.989610  31.662532  8.449984
  7626.517  7626.510  0.500  1.468935  137.951423  31.752352  8.490150
  7630.908  7630.890  0.500  1.465607  137.838887  31.832200  8.528884
  7635.299  7635.280  0.500  1.462386  137.671181  31.896046  8.564086
  7639.713  7639.700  0.500  1.459590  137.544263  31.955875  8.597185
  7644.144  7644.130  0.500  1.456299  137.380761  32.023103  8.631081
  7648.596  7648.580  0.500  1.452943  137.215773  32.092170  8.666844
  7653.068  7653.050  0.500  1.449644  137.040047  32.156977  8.702416
  7657.558  7657.540  0.500  1.446667  136.840406  32.205868  8.733433
  7662.066  7662.050  0.500  1.443465  136.678360  32.270892  8.768156
  7666.593  7666.580  0.500  1.440206  136.511626  32.336738  8.802853
  7671.142  7671.130  0.500  1.437131  136.346801  32.397162  8.838390
