# XDI/1.0 BlueSky/1.10.0 BMM/2023-1.0-py310-tiled
# Beamline.name: BMM (06BM) -- Beamline for Materials Measurement (NIST)
# Beamline.xray_source: NSLS-II three-pole wiggler
# Beamline.collimation: paraboloid mirror, 5 nm Rh on 30 nm Pt
# Beamline.focusing: not in use
# Beamline.harmonic_rejection: flat mirror, Si stripe, pitch = 7.0 mrad relative to beam
# Beamline.software: Bluesky 1.10.0, Ophyd 1.7.0, DataBroker 2.0.0b13, Python 3.10.8, 2023-1.0-py310-tiled
# Detector.I0: 10 cm N2
# Detector.I1: 25 cm N2
# Detector.I2: 25 cm N2
# Element.symbol: Tb
# Element.edge: L3
# Element.reference: Tb
# Element.reference_material: Tb4O9
# Facility.name: NSLS-II
# Facility.energy: 3.0
# Facility.current: 400.4
# Facility.mode: top-off
# Facility.GUP: 301027
# Facility.SAF: 310583
# Facility.cycle: 2023-2
# Mono.name: Si(111)
# Mono.d_spacing: 3.1351860
# Mono.encoder_resolution: 0.0000050 deg/ct
# Mono.angle_offset: 16.0754326 deg
# Mono.scan_mode: pseudo channel cut
# Mono.scan_type: step
# Mono.direction: forward in energy
# Sample.name: Tb4O9
# Sample.prep: PEG pellet
# Sample.x: 109.138 mm
# Sample.y: 153.150 mm
# Sample.SDD_position: 205.000 mm
# Scan.experimenters: Bruce Ravel
# Scan.edge_energy: 7514.0
# Scan.start_time: 2023-05-28T13:49:24
# Scan.end_time: 2023-05-28T13:57:08
# Scan.transient_id: 78735
# Scan.uid: 17cf7e95-925d-435c-b6f2-0b17221e4a5c
# Scan.plot_hint: ln(It/Ir)  --  ln($6/$7)
# Column.1: energy eV
# Column.2: requested_energy eV
# Column.3: measurement_time seconds
# Column.4: xmu 
# Column.5: I0 nA
# Column.6: It nA
# Column.7: Ir nA
# ///////////
# sample courtesy Martin Stennett, University of Sheffield
# -----------
# energy  requested_energy  measurement_time  xmu  I0  It  Ir
  7314.014  7314.000  0.500  1.686189  147.365496  153.635418  28.456964
  7324.041  7324.000  0.500  1.679320  147.342759  154.041151  28.728802
  7334.078  7334.000  0.500  1.672565  147.278270  154.374939  28.986178
  7344.043  7344.000  0.500  1.665816  147.028852  154.501288  29.206366
  7354.021  7354.000  0.500  1.659186  147.059931  154.989038  29.493470
  7364.047  7364.000  0.500  1.652622  146.950421  155.274997  29.742465
  7374.025  7374.000  0.500  1.646019  146.854438  155.458399  29.974869
  7384.010  7384.000  0.500  1.639430  146.758906  155.809091  30.241086
  7394.012  7394.000  0.500  1.633027  146.713850  156.139515  30.499884
  7404.012  7404.000  0.500  1.626548  146.611839  156.415983  30.752497
  7414.012  7414.000  0.500  1.620156  146.566647  156.740223  31.013836
  7424.017  7424.000  0.500  1.613759  146.439244  156.980266  31.260680
  7434.442  7434.000  0.500  1.607433  146.293537  157.216250  31.506366
  7443.971  7444.000  0.500  1.601528  146.292985  157.595774  31.769457
  7453.980  7454.000  0.500  1.595540  142.279483  153.652525  31.160567
  7463.980  7464.000  0.500  1.589921  146.273706  158.355030  32.295190
  7473.985  7474.000  0.500  1.584917  146.220390  158.663108  32.520357
  7483.985  7484.000  0.500  1.581108  146.034816  158.812014  32.675101
  7485.981  7486.000  0.500  1.580607  146.029331  158.870335  32.703478
  7487.980  7488.000  0.500  1.580262  146.020737  158.963446  32.733923
  7489.986  7490.000  0.500  1.580116  146.017253  159.050194  32.756563
  7491.983  7492.000  0.500  1.580205  145.947810  159.050511  32.753726
  7493.988  7494.000  0.500  1.580437  145.917756  159.083082  32.752829
  7495.987  7496.000  0.500  1.581117  145.933303  159.180613  32.750648
  7497.983  7498.000  0.500  1.582372  145.898793  159.220970  32.717841
  7499.987  7500.000  0.500  1.584282  145.873383  159.260175  32.663452
  7501.992  7502.000  0.500  1.587269  145.858712  159.329448  32.580217
  7503.986  7504.000  0.500  1.591811  145.817139  159.367065  32.440220
  7504.276  7504.300  0.500  1.592722  145.813792  159.364994  32.410258
  7504.573  7504.600  0.500  1.593671  145.793442  159.366536  32.379821
  7504.877  7504.900  0.500  1.594679  145.783082  159.368401  32.347586
  7505.180  7505.200  0.500  1.595706  145.819435  159.415032  32.323841
  7505.482  7505.500  0.500  1.596954  145.755010  159.360354  32.272453
  7505.777  7505.800  0.500  1.598144  145.788302  159.396403  32.241362
  7506.079  7506.100  0.500  1.599417  145.762986  159.374582  32.195928
  7506.386  7506.400  0.500  1.601002  145.728206  159.355654  32.141116
  7506.688  7506.700  0.500  1.602534  145.731980  159.369988  32.094815
  7506.983  7507.000  0.500  1.604292  145.732638  159.375474  32.039549
  7507.286  7507.300  0.500  1.606268  145.709737  159.390854  31.979377
  7507.593  7507.600  0.500  1.608359  145.691467  159.355589  31.905538
  7507.886  7507.900  0.500  1.610557  145.711309  159.332061  31.830764
  7508.186  7508.200  0.500  1.613055  145.710812  159.342416  31.753405
  7508.493  7508.500  0.500  1.615948  145.682816  159.324703  31.658169
  7508.788  7508.800  0.500  1.618995  145.665347  159.342669  31.565403
  7509.088  7509.100  0.500  1.622424  145.670446  159.371504  31.463055
  7509.388  7509.400  0.500  1.626474  145.664852  159.390799  31.339678
  7509.686  7509.700  0.500  1.630699  145.642693  159.383389  31.206105
  7509.986  7510.000  0.500  1.635363  145.662359  159.411107  31.066307
  7510.289  7510.300  0.500  1.640439  145.635064  159.398941  30.906638
  7510.594  7510.600  0.500  1.645802  145.640688  159.404395  30.742379
  7510.897  7510.900  0.500  1.651734  145.610735  159.378620  30.555622
  7511.197  7511.200  0.500  1.658053  145.624704  159.389211  30.365163
  7511.495  7511.500  0.500  1.664598  145.649210  159.435337  30.175816
  7511.793  7511.800  0.500  1.671747  145.613488  159.415804  29.957166
  7512.098  7512.100  0.500  1.679320  145.628110  159.441264  29.735921
  7512.400  7512.400  0.500  1.687005  145.628910  159.486856  29.516716
  7512.696  7512.700  0.500  1.694820  145.599516  159.446766  29.279579
  7512.999  7513.000  0.500  1.703168  145.597546  159.422146  29.031694
  7513.292  7513.300  0.500  1.711982  145.585637  159.423490  28.777157
  7513.590  7513.600  0.500  1.721540  145.624426  159.485153  28.514453
  7513.895  7513.900  0.500  1.732848  145.582980  159.455512  28.188594
  7514.191  7514.200  0.500  1.745405  145.586147  159.491563  27.843119
  7514.492  7514.500  0.500  1.760152  145.566516  159.494052  27.435951
  7514.797  7514.800  0.500  1.777258  145.570059  159.476581  26.967677
  7515.093  7515.100  0.500  1.796832  145.555916  159.491502  26.447432
  7515.398  7515.400  0.500  1.820061  145.562985  159.501940  25.841839
  7515.699  7515.700  0.500  1.847259  145.539302  159.477017  25.144541
  7516.007  7516.000  0.500  1.879146  145.590827  159.538797  24.364833
  7516.303  7516.300  0.500  1.914516  145.500149  159.456333  23.505965
  7516.598  7516.600  0.500  1.953628  145.526246  159.527647  22.614447
  7516.892  7516.900  0.500  1.994889  145.553647  159.540950  21.702158
  7517.193  7517.200  0.500  2.037049  145.499159  159.493164  20.799970
  7517.496  7517.500  0.500  2.081260  145.505781  159.528016  19.904774
  7517.794  7517.800  0.500  2.124641  145.470190  159.502268  19.056667
  7518.100  7518.100  0.500  2.169560  145.468751  159.542547  18.224199
  7518.398  7518.400  0.500  2.214039  145.475777  159.553463  17.432562
  7518.699  7518.700  0.500  2.258008  145.515754  159.606620  16.688238
  7519.003  7519.000  0.500  2.300365  145.470433  159.560662  15.991536
  7519.301  7519.300  0.500  2.339782  145.489753  159.571297  15.374475
  7519.600  7519.600  0.500  2.374795  145.435105  159.522133  14.840907
  7519.901  7519.900  0.500  2.403771  145.447814  159.520166  14.416880
  7520.202  7520.200  0.500  2.427179  145.437710  159.527358  14.083956
  7520.500  7520.500  0.500  2.444231  145.437061  159.563864  13.849007
  7520.806  7520.800  0.500  2.454887  145.411934  159.538484  13.700033
  7521.100  7521.100  0.500  2.459169  145.406555  159.562238  13.643527
  7521.396  7521.400  0.500  2.457989  145.389216  159.552611  13.658815
  7521.692  7521.700  0.500  2.452567  145.395896  159.571833  13.734727
  7521.991  7522.000  0.500  2.444304  145.390868  159.574618  13.848927
  7522.297  7522.300  0.500  2.434108  145.409411  159.596134  13.992731
  7522.601  7522.600  0.500  2.422866  145.375117  159.574144  14.148976
  7522.907  7522.900  0.500  2.411656  145.365161  159.569084  14.308034
  7523.208  7523.200  0.500  2.400994  145.369810  159.563861  14.460918
  7523.505  7523.500  0.500  2.391412  145.775275  160.040913  14.643805
  7523.799  7523.800  0.500  2.383148  145.784377  160.071325  14.768130
  7524.100  7524.100  0.500  2.375907  145.781820  160.083859  14.876623
  7524.397  7524.400  0.500  2.370274  145.771588  160.074335  14.959767
  7524.695  7524.700  0.500  2.366009  145.788335  160.087903  15.024981
  7524.999  7525.000  0.500  2.363295  145.815787  160.144367  15.071121
  7525.293  7525.300  0.500  2.362184  145.815676  160.164677  15.089799
  7525.602  7525.600  0.500  2.363341  145.805847  160.139657  15.069988
  7525.899  7525.900  0.500  2.366862  145.787376  160.129691  15.016086
  7526.203  7526.200  0.500  2.373050  145.786320  160.140247  14.924443
  7526.504  7526.500  0.500  2.381581  145.796889  160.187688  14.802049
  7526.799  7526.800  0.500  2.392133  145.802560  160.187568  14.646663
  7527.103  7527.100  0.500  2.403804  145.775364  160.128052  14.471335
  7527.402  7527.400  0.500  2.415742  145.784580  160.176468  14.303922
  7527.703  7527.700  0.500  2.427390  145.776174  160.206199  14.140910
  7528.003  7528.000  0.500  2.437145  145.757497  160.214097  14.004327
  7528.304  7528.300  0.500  2.444937  145.774006  160.229978  13.897007
  7528.599  7528.600  0.500  2.449919  145.752080  160.244170  13.829167
  7528.898  7528.900  0.500  2.452152  145.719612  160.182072  13.792974
  7529.197  7529.200  0.500  2.451749  145.719448  160.199047  13.799989
  7529.497  7529.500  0.500  2.449097  145.693035  160.177426  13.834777
  7529.799  7529.800  0.500  2.444063  145.695313  160.196456  13.906250
  7530.100  7530.100  0.500  2.436621  145.709815  160.222117  14.012368
  7530.407  7530.400  0.500  2.426263  145.707904  160.231101  14.159047
  7530.707  7530.700  0.500  2.412957  145.691977  160.208077  14.346643
  7531.006  7531.000  0.500  2.396592  145.687855  160.171343  14.580015
  7531.301  7531.300  0.500  2.377246  145.688979  160.208883  14.868308
  7531.600  7531.600  0.500  2.355289  145.647892  160.232751  15.200654
  7531.895  7531.900  0.500  2.331864  145.707748  160.290576  15.566551
  7532.197  7532.200  0.500  2.306334  145.661993  160.237576  15.963806
  7532.501  7532.500  0.500  2.279340  145.635052  160.231028  16.399916
  7532.803  7532.800  0.500  2.253047  145.638524  160.248511  16.838679
  7533.098  7533.100  0.500  2.227343  145.610624  160.242051  17.276413
  7533.403  7533.400  0.500  2.203144  145.604658  160.252096  17.700708
  7533.702  7533.700  0.500  2.181026  145.587143  160.240040  18.095204
  7534.002  7534.000  0.500  2.161003  145.579188  160.252710  18.462642
  7534.302  7534.300  0.500  2.143586  145.595562  160.268935  18.788919
  7534.609  7534.600  0.500  2.127759  145.555630  160.222882  19.083167
  7534.906  7534.900  0.500  2.113654  145.571354  160.248594  19.357355
  7535.204  7535.200  0.500  2.101051  145.545976  160.204007  19.597406
  7535.501  7535.500  0.500  2.089734  145.528427  160.182486  19.817786
  7535.796  7535.800  0.500  2.079822  145.535824  160.205140  20.018033
  7536.101  7536.100  0.500  2.070744  145.524939  160.206716  20.200768
  7536.399  7536.400  0.500  2.063023  145.515771  160.234045  20.360818
  7536.701  7536.700  0.500  2.056274  145.519131  160.230989  20.498311
  7536.998  7537.000  0.500  2.050329  145.510076  160.213400  20.618271
  7537.296  7537.300  0.500  2.044791  145.486290  160.201162  20.731189
  7537.598  7537.600  0.500  2.039911  145.495690  160.218900  20.834904
  7537.901  7537.900  0.500  2.035544  145.529797  160.259441  20.931399
  7538.206  7538.200  0.500  2.031359  145.459748  160.219595  21.013948
  7538.506  7538.500  0.500  2.027595  145.455789  160.208310  21.091701
  7538.804  7538.800  0.500  2.024177  145.450446  160.196685  21.162382
  7539.000  7539.000  0.500  2.022075  145.439725  160.208941  21.208543
  7539.990  7539.990  0.500  2.012083  145.459904  160.310590  21.435113
  7541.002  7540.990  0.500  2.003330  145.403573  160.298454  21.621923
  7542.029  7542.010  0.500  1.997363  145.412520  160.341376  21.757151
  7543.071  7543.060  0.500  1.994420  145.401324  160.345096  21.821774
  7544.130  7544.120  0.500  1.995043  145.375626  160.356959  21.809791
  7545.226  7545.200  0.500  1.998411  145.359860  160.384107  21.740144
  7546.283  7546.300  0.500  2.002670  145.301982  160.374797  21.646488
  7547.404  7547.420  0.500  2.007102  145.301882  160.354704  21.548065
  7548.542  7548.560  0.500  2.011727  145.280123  160.415534  21.456770
  7549.698  7549.710  0.500  2.016714  145.282354  160.441073  21.353442
  7550.875  7550.890  0.500  2.023045  145.266904  160.466322  21.222005
  7552.068  7552.080  0.500  2.030379  145.191709  160.399385  21.058160
  7553.295  7553.300  0.500  2.038810  145.169600  160.441825  20.886888
  7554.522  7554.530  0.500  2.047436  145.147387  160.471618  20.711337
  7555.779  7555.780  0.500  2.055879  145.161863  160.525917  20.544158
  7557.051  7557.050  0.500  2.062382  145.173132  160.597334  20.420066
  7558.336  7558.340  0.500  2.065980  145.100306  160.572352  20.343565
  7559.648  7559.650  0.500  2.066845  145.129912  160.660053  20.337079
  7560.992  7560.980  0.500  2.065729  145.088119  160.675510  20.361742
  7562.329  7562.330  0.500  2.064234  145.110695  160.768637  20.404019
  7563.703  7563.700  0.500  2.063438  145.035886  160.731088  20.415515
  7565.076  7565.080  0.500  2.063733  145.020150  160.769555  20.414372
  7566.488  7566.490  0.500  2.063917  144.997415  160.720500  20.404388
  7567.905  7567.910  0.500  2.063216  144.986850  160.766282  20.424510
  7569.340  7569.350  0.500  2.061227  144.959607  160.791998  20.468453
  7570.810  7570.810  0.500  2.057899  144.926080  160.851295  20.544251
  7572.285  7572.290  0.500  2.053780  144.925294  160.900139  20.635310
  7573.787  7573.790  0.500  2.048634  144.910410  160.935055  20.746274
  7575.313  7575.310  0.500  2.042947  144.877377  160.959285  20.867744
  7576.846  7576.850  0.500  2.037095  144.842347  160.977363  20.992566
  7578.414  7578.410  0.500  2.031610  144.842035  161.005643  21.111749
  7579.976  7579.980  0.500  2.026474  144.796016  161.028528  21.223462
  7581.584  7581.580  0.500  2.022279  144.796266  161.117933  21.324526
  7583.191  7583.190  0.500  2.018991  144.718103  161.042090  21.384682
  7584.836  7584.830  0.500  2.016388  144.718178  161.092714  21.447148
  7586.478  7586.480  0.500  2.014143  144.685936  161.160995  21.504473
  7588.154  7588.150  0.500  2.012172  144.605912  161.132466  21.543075
  7589.844  7589.840  0.500  2.010631  144.563413  161.142303  21.577625
  7591.551  7591.550  0.500  2.009254  144.521571  161.160013  21.609739
  7593.292  7593.280  0.500  2.008217  144.468052  161.174257  21.634063
  7595.032  7595.030  0.500  2.007577  144.414525  161.164608  21.646620
  7596.797  7596.790  0.500  2.007328  144.367766  161.161715  21.651629
  7598.576  7598.580  0.500  2.007388  144.307613  161.135448  21.646786
  7600.395  7600.380  0.500  2.007868  144.196166  161.062391  21.626598
  7602.212  7602.210  0.500  2.008268  142.162897  158.869964  21.323676
  7604.055  7604.050  0.500  2.008748  143.723986  160.679437  21.556204
  7605.915  7605.910  0.500  2.009268  143.710422  160.734426  21.552367
  7607.799  7607.790  0.500  2.010000  143.658626  160.759034  21.539890
  7609.692  7609.690  0.500  2.010754  143.545857  160.676204  21.512565
  7611.610  7611.610  0.500  2.011578  143.507785  160.711341  21.499543
  7613.559  7613.550  0.500  2.012277  143.548026  160.854436  21.503650
  7615.516  7615.510  0.500  2.012862  143.622611  161.006601  21.511399
  7617.491  7617.480  0.500  2.013622  143.564435  161.036188  21.499010
  7619.488  7619.480  0.500  2.014639  143.638152  161.168384  21.494801
  7621.495  7621.490  0.500  2.015679  143.775135  161.358865  21.497831
  7623.523  7623.520  0.500  2.016626  143.872109  161.550983  21.503049
  7625.602  7625.580  0.500  2.016985  143.906153  161.655349  21.509209
  7627.650  7627.650  0.500  2.016583  143.916503  161.727763  21.527512
  7629.754  7629.740  0.500  2.014979  143.908638  161.822398  21.574673
  7631.859  7631.850  0.500  2.012538  143.894830  161.891237  21.636600
  7633.995  7633.980  0.500  2.009642  143.856139  161.929755  21.704516
  7636.124  7636.120  0.500  2.006410  143.823956  161.967993  21.779931
  7638.297  7638.290  0.500  2.002868  143.784620  161.989840  21.860157
  7640.489  7640.480  0.500  1.998831  143.748265  162.032903  21.954412
  7642.695  7642.680  0.500  1.994659  143.712523  162.081960  22.052872
  7644.907  7644.900  0.500  1.990544  143.704484  162.157724  22.154172
  7647.167  7647.150  0.500  1.986719  143.708553  162.231811  22.249233
  7649.419  7649.410  0.500  1.983353  143.620415  162.196549  22.319396
  7651.698  7651.690  0.500  1.980692  143.605409  162.279133  22.390257
  7653.997  7653.990  0.500  1.978568  143.557273  162.295540  22.440138
  7656.323  7656.310  0.500  1.977377  143.556188  162.381604  22.478785
  7658.664  7658.650  0.500  1.976754  143.489757  162.384011  22.493120
  7661.008  7661.000  0.500  1.976779  143.458629  162.385225  22.492729
  7663.393  7663.380  0.500  1.976896  143.437922  162.442286  22.498006
  7665.778  7665.770  0.500  1.976963  143.413707  162.573675  22.514705
  7668.209  7668.190  0.500  1.977010  143.337508  162.531656  22.507821
  7670.630  7670.620  0.500  1.976996  143.304403  162.526675  22.507448
  7673.095  7673.070  0.500  1.976711  143.236297  162.541883  22.515978
  7675.558  7675.550  0.500  1.975918  143.229556  162.721810  22.558770
  7678.059  7678.040  0.500  1.974021  143.219804  162.756922  22.606490
  7680.559  7680.550  0.500  1.971404  143.122561  162.688583  22.656207
  7683.086  7683.070  0.500  1.968783  143.050295  162.715749  22.719453
  7685.642  7685.620  0.500  1.966363  142.947861  162.674046  22.768666
  7688.197  7688.190  0.500  1.964285  139.457477  158.781021  22.270010
  7690.784  7690.770  0.500  1.962577  143.036592  162.981980  22.898303
  7693.391  7693.380  0.500  1.961156  142.977826  163.009194  22.934689
  7696.013  7696.000  0.500  1.960188  142.871050  162.977457  22.952424
  7698.666  7698.650  0.500  1.959442  142.807358  162.999111  22.972616
  7701.319  7701.310  0.500  1.958972  142.720750  163.002072  22.983834
  7704.009  7703.990  0.500  1.958542  142.598353  162.918452  22.981915
  7706.706  7706.690  0.500  1.958118  139.471471  159.445081  22.501493
  7709.423  7709.410  0.500  1.957826  142.744008  163.254482  23.045808
  7712.165  7712.150  0.500  1.956986  142.629734  163.216088  23.059756
  7714.909  7714.900  0.500  1.955588  142.579868  163.251100  23.096963
  7717.693  7717.680  0.500  1.953803  142.419713  163.174423  23.127373
  7720.486  7720.470  0.500  1.951753  141.635185  162.360804  23.059285
  7723.297  7723.290  0.500  1.949374  142.568209  163.517152  23.278825
  7726.136  7726.120  0.500  1.946696  142.409004  163.473221  23.334967
  7728.989  7728.970  0.500  1.943809  142.334085  163.494277  23.405445
  7731.863  7731.850  0.500  1.940834  142.271742  163.517086  23.478468
  7734.749  7734.740  0.500  1.937982  142.636550  164.055246  23.623007
  7737.670  7737.650  0.500  1.935425  142.586823  164.035697  23.680680
  7740.584  7740.570  0.500  1.932999  138.876057  159.847544  23.132106
  7743.535  7743.520  0.500  1.930819  142.563830  164.246212  23.820523
  7746.515  7746.490  0.500  1.928991  142.512135  164.311679  23.873628
  7749.481  7749.470  0.500  1.927497  142.451593  164.300261  23.907663
  7752.491  7752.480  0.500  1.926095  142.363473  164.318785  23.943893
  7755.519  7755.500  0.500  1.924738  142.334678  164.394395  23.987430
  7758.569  7758.550  0.500  1.923271  142.284493  164.436324  24.028778
  7761.633  7761.610  0.500  1.921948  142.225536  164.466804  24.065065
  7764.706  7764.690  0.500  1.920503  142.178251  164.514014  24.106769
  7767.808  7767.790  0.500  1.918891  142.041386  164.447973  24.135973
  7770.928  7770.910  0.500  1.917119  141.979734  164.464267  24.181175
  7774.069  7774.050  0.500  1.915100  141.900356  164.534164  24.240351
  7777.209  7777.200  0.500  1.913021  141.850339  164.558167  24.294331
  7780.391  7780.380  0.500  1.910876  141.776148  164.558905  24.346614
  7783.584  7783.570  0.500  1.908453  141.699964  164.550897  24.404484
  7786.800  7786.790  0.500  1.906226  141.644602  164.623202  24.469652
  7790.029  7790.020  0.500  1.904140  141.533342  164.622097  24.520564
  7793.284  7793.270  0.500  1.902174  141.470073  164.669329  24.575875
  7796.565  7796.550  0.500  1.900340  141.395508  164.688960  24.623936
  7799.852  7799.840  0.500  1.898475  141.360162  164.762937  24.680982
  7803.163  7803.150  0.500  1.896731  141.259559  164.773967  24.725718
  7806.484  7806.470  0.500  1.895214  141.210814  164.836469  24.772649
  7809.842  7809.820  0.500  1.893561  141.102098  164.758380  24.801860
  7813.213  7813.190  0.500  1.891975  140.991413  164.703998  24.833031
  7816.587  7816.570  0.500  1.890423  140.979406  164.824710  24.889825
  7819.996  7819.980  0.500  1.888548  140.874662  164.816890  24.935374
  7823.413  7823.400  0.500  1.886532  140.812212  164.845816  24.990059
  7826.862  7826.850  0.500  1.884154  140.740908  164.892728  25.056708
  7830.324  7830.310  0.500  1.881674  140.662824  164.895235  25.119288
  7833.811  7833.790  0.500  1.878933  140.517247  164.825972  25.177662
  7837.306  7837.290  0.500  1.876246  140.428510  164.858249  25.250340
  7840.820  7840.810  0.500  1.873811  140.022291  164.529570  25.261451
  7844.366  7844.350  0.500  1.871212  140.269525  164.913915  25.386342
  7847.911  7847.900  0.500  1.868887  140.138759  164.848285  25.435313
  7851.498  7851.480  0.500  1.866488  140.070912  164.874556  25.500459
  7855.093  7855.080  0.500  1.864302  138.963143  163.690612  25.372764
  7858.698  7858.690  0.500  1.862101  139.885432  164.886268  25.614409
  7862.332  7862.320  0.500  1.860001  139.834191  164.949151  25.678045
  7865.986  7865.980  0.500  1.857837  139.752796  164.973501  25.737460
  7869.659  7869.650  0.500  1.855828  139.643642  164.965432  25.787962
  7873.354  7873.340  0.500  1.853776  139.546527  164.959249  25.839966
  7877.068  7877.050  0.500  1.851738  139.440047  164.984086  25.896582
  7880.797  7880.780  0.500  1.849637  139.329539  164.991519  25.952221
  7884.535  7884.520  0.500  1.847404  139.233690  164.980582  26.008516
  7888.297  7888.290  0.500  1.845027  139.148726  164.995879  26.072825
  7892.085  7892.080  0.500  1.842667  139.045587  164.975488  26.131196
  7895.895  7895.880  0.500  1.840267  138.975510  165.015275  26.200315
  7899.725  7899.710  0.500  1.837935  137.851917  163.778929  26.064721
  7903.564  7903.550  0.500  1.835571  138.692610  164.933018  26.310501
  7907.423  7907.410  0.500  1.833242  138.624310  165.001536  26.382814
  7911.302  7911.290  0.500  1.830797  138.514866  164.976584  26.443409
  7915.206  7915.190  0.500  1.828320  138.435901  164.995566  26.512028
  7919.123  7919.110  0.500  1.826012  138.302986  164.970865  26.569306
  7923.067  7923.050  0.500  1.823677  138.205747  165.008256  26.637451
  7927.026  7927.010  0.500  1.821448  138.103795  164.980883  26.692463
  7930.987  7930.980  0.500  1.819056  137.925817  164.878741  26.739835
  7934.990  7934.980  0.500  1.816863  137.781392  164.827462  26.790198
  7939.004  7938.990  0.500  1.814439  135.963097  162.751899  26.517049
  7943.047  7943.030  0.500  1.812091  137.723280  164.971331  26.941840
  7947.095  7947.080  0.500  1.809672  137.572993  164.908884  26.996885
  7951.163  7951.150  0.500  1.807291  136.354888  163.584236  26.843856
  7955.256  7955.240  0.500  1.804805  137.300697  164.845836  27.118226
  7959.360  7959.350  0.500  1.802266  137.159189  164.845915  27.187183
  7963.495  7963.480  0.500  1.799766  137.029859  164.794557  27.246742
  7967.646  7967.630  0.500  1.797165  136.875817  164.736619  27.308085
  7971.803  7971.790  0.500  1.794658  136.699988  164.680673  27.367340
  7975.995  7975.980  0.500  1.792144  136.398485  164.428707  27.394239
  7980.197  7980.180  0.500  1.789492  135.503041  163.482355  27.308911
  7984.420  7984.410  0.500  1.786948  135.984084  164.200122  27.498668
  7988.656  7988.650  0.500  1.784391  135.871521  164.176788  27.565155
  7992.932  7992.910  0.500  1.781695  135.763655  164.175210  27.639321
  7997.209  7997.190  0.500  1.779040  135.621824  164.137344  27.706391
  8001.506  8001.490  0.500  1.776340  135.533680  164.185979  27.789553
  8005.821  8005.810  0.500  1.773750  135.410148  164.149312  27.855402
  8010.162  8010.150  0.500  1.771125  135.443289  164.287100  27.952053
  8014.525  8014.510  0.500  1.768653  135.453330  164.451744  28.049310
  8018.909  8018.890  0.500  1.765989  135.412007  164.530946  28.137677
  8023.293  8023.280  0.500  1.763311  135.209153  164.409618  28.192322
  8027.717  8027.700  0.500  1.760639  135.085002  164.376426  28.262059
  8032.142  8032.130  0.500  1.758009  134.977443  164.348141  28.331596
  8036.593  8036.580  0.500  1.755516  134.839841  164.323767  28.398122
  8041.066  8041.050  0.500  1.752938  134.677201  164.296820  28.466742
  8045.557  8045.540  0.500  1.750535  134.512234  164.218511  28.521628
  8050.074  8050.050  0.500  1.748067  134.394200  164.173743  28.584314
  8054.604  8054.580  0.500  1.745500  134.161602  164.017574  28.630531
  8059.153  8059.130  0.500  1.742934  129.051944  157.901503  27.633741
  8063.708  8063.700  0.500  1.740116  133.958732  164.050758  28.790904
  8068.295  8068.280  0.500  1.737346  133.503650  163.634783  28.797565
  8072.899  8072.890  0.500  1.734533  133.836600  164.205968  28.979503
  8077.526  8077.510  0.500  1.731712  133.320987  163.670522  28.966609
  8082.180  8082.160  0.500  1.728819  133.636103  164.191957  29.143078
  8086.871  8086.820  0.500  1.726025  133.322019  163.952323  29.181954
  8091.522  8091.500  0.500  1.723311  128.063130  157.604768  28.128396
  8096.254  8096.200  0.500  1.720551  133.140385  163.975567  29.346308
  8100.939  8100.920  0.500  1.717783  132.975873  163.917264  29.417176
  8105.681  8105.660  0.500  1.715026  132.767511  163.776072  29.472991
  8110.464  8110.410  0.500  1.712322  132.627040  163.760338  29.549957
  8115.242  8115.190  0.500  1.709470  132.434722  163.643484  29.613202
  8120.048  8119.990  0.500  1.706686  132.259637  163.562682  29.681109
  8124.827  8124.800  0.500  1.703964  132.103372  163.493836  29.749478
  8129.673  8129.630  0.500  1.701294  131.907851  163.391882  29.810414
  8134.548  8134.490  0.500  1.698490  131.785801  163.355026  29.887367
  8139.333  8139.360  0.500  1.695703  131.611670  163.282733  29.957505
  8144.311  8144.250  0.500  1.692834  131.396874  163.176355  30.024007
  8149.142  8149.160  0.500  1.689889  131.227963  163.111934  30.100684
  8154.092  8154.090  0.500  1.686951  131.077242  163.033811  30.174777
  8159.014  8159.030  0.500  1.683946  130.868608  162.895376  30.239894
  8163.989  8164.000  0.500  1.681001  130.708082  162.857266  30.321976
  8168.989  8168.990  0.500  1.677935  130.557950  162.795902  30.403651
  8173.970  8173.990  0.500  1.674925  130.387383  162.722952  30.481641
  8178.992  8179.020  0.500  1.671901  130.212411  162.644220  30.559141
  8184.031  8184.060  0.500  1.668974  130.024319  162.542228  30.629509
  8189.092  8189.120  0.500  1.665999  129.842411  162.474129  30.707905
  8194.164  8194.200  0.500  1.663102  129.674178  162.352454  30.773910
  8199.263  8199.300  0.500  1.660229  129.506542  162.260566  30.844980
  8204.395  8204.420  0.500  1.657365  129.301254  162.141435  30.910755
  8209.539  8209.560  0.500  1.654538  129.117477  162.071041  30.984787
  8214.696  8214.720  0.500  1.651806  128.977796  162.089227  31.073047
  8219.873  8219.900  0.500  1.649066  128.724763  161.857625  31.113774
  8225.078  8225.090  0.500  1.646523  128.553125  161.768944  31.175915
  8230.281  8230.310  0.500  1.644293  128.329241  161.596671  31.212233
