# XDI/1.0 BlueSky/1.10.0 BMM/2023-1.0-py310-tiled
# Beamline.name: BMM (06BM) -- Beamline for Materials Measurement (NIST)
# Beamline.xray_source: NSLS-II three-pole wiggler
# Beamline.collimation: paraboloid mirror, 5 nm Rh on 30 nm Pt
# Beamline.focusing: not in use
# Beamline.harmonic_rejection: flat mirror, Si stripe, pitch = 7.0 mrad relative to beam
# Beamline.software: Bluesky 1.10.0, Ophyd 1.7.0, DataBroker 2.0.0b13, Python 3.10.8, 2023-1.0-py310-tiled
# Detector.I0: 10 cm N2
# Detector.I1: 25 cm N2
# Detector.I2: 25 cm N2
# Element.symbol: Tb
# Element.edge: L3
# Element.reference: Tb
# Element.reference_material: Tb4O9
# Facility.name: NSLS-II
# Facility.energy: 3.0
# Facility.current: 398.9
# Facility.mode: top-off
# Facility.GUP: 123456
# Facility.SAF: 301027
# Facility.cycle: 2023-2
# Mono.name: Si(111)
# Mono.d_spacing: 3.1351860
# Mono.encoder_resolution: 0.0000050 deg/ct
# Mono.angle_offset: 16.0754326 deg
# Mono.scan_mode: pseudo channel cut
# Mono.scan_type: step
# Mono.direction: forward in energy
# Sample.name: Tb2TiO5
# Sample.prep: Powder in PEG pellet
# Sample.x: 149.848 mm
# Sample.y: 114.690 mm
# Sample.SDD_position: 205.000 mm
# Scan.experimenters: Bruce Ravel
# Scan.edge_energy: 7514.0
# Scan.start_time: 2023-05-08T18:26:01
# Scan.end_time: 2023-05-08T18:31:47
# Scan.transient_id: 75490
# Scan.uid: 0ee3688c-75ae-42e4-a407-a42b1b8c132b
# Scan.plot_hint: ln(I0/It)  --  ln($5/$6)
# Column.1: energy eV
# Column.2: requested_energy eV
# Column.3: measurement_time seconds
# Column.4: xmu 
# Column.5: I0 nA
# Column.6: It nA
# Column.7: Ir nA
# ///////////
# sample courtesy Martin Stennett, University of Sheffield
# -----------
# energy  requested_energy  measurement_time  xmu  I0  It  Ir
  7314.009  7314.000  0.500  1.184881  147.148693  44.995483  11.164545
  7324.059  7324.000  0.500  1.177497  147.110579  45.317255  11.309135
  7334.017  7334.000  0.500  1.170217  147.076405  45.637731  11.451599
  7344.039  7344.000  0.500  1.162811  146.912993  45.925927  11.587850
  7354.025  7354.000  0.500  1.156050  146.892180  46.230937  11.727845
  7364.021  7364.000  0.500  1.148816  146.815176  46.542147  11.872527
  7374.013  7374.000  0.500  1.141836  146.749317  46.847152  12.014621
  7384.015  7384.000  0.500  1.134913  146.662158  47.144580  12.155298
  7394.015  7394.000  0.500  1.127816  146.607232  47.462579  12.303808
  7404.012  7404.000  0.500  1.120702  146.539001  47.779163  12.450678
  7414.003  7414.000  0.500  1.114174  146.462692  48.067026  12.591411
  7424.000  7424.000  0.500  1.107233  146.182901  48.309388  12.712682
  7434.000  7434.000  0.500  1.100089  146.069378  48.617921  12.857590
  7444.000  7444.000  0.500  1.093444  145.822918  48.859519  12.986029
  7454.001  7454.000  0.500  1.086960  142.617278  48.096260  12.844216
  7463.995  7464.000  0.500  1.080631  145.791842  49.479039  13.272477
  7473.995  7474.000  0.500  1.074999  145.723955  49.735300  13.390453
  7484.006  7484.000  0.500  1.070474  145.561118  49.905037  13.473471
  7485.993  7486.000  0.500  1.069856  145.547004  49.931032  13.483854
  7487.985  7488.000  0.500  1.069260  145.518310  49.950991  13.490628
  7489.988  7490.000  0.500  1.069060  145.470371  49.944510  13.488330
  7491.990  7492.000  0.500  1.068769  145.451011  49.952408  13.487734
  7493.990  7494.000  0.500  1.068857  145.437123  49.943204  13.477706
  7495.990  7496.000  0.500  1.069592  145.409643  49.897084  13.453524
  7497.992  7498.000  0.500  1.070629  145.390903  49.838954  13.415954
  7499.994  7500.000  0.500  1.072783  145.338651  49.713837  13.353102
  7501.992  7502.000  0.500  1.075819  145.310717  49.553604  13.266386
  7503.988  7504.000  0.500  1.081011  145.284591  49.288124  13.129799
  7504.477  7504.500  0.500  1.082616  145.255941  49.199383  13.082770
  7504.981  7505.000  0.500  1.084646  145.256841  49.099907  13.032954
  7505.482  7505.500  0.500  1.086871  145.249683  48.988377  12.978007
  7505.981  7506.000  0.500  1.089355  145.238965  48.863247  12.916663
  7506.482  7506.500  0.500  1.092441  145.242430  48.713831  12.841606
  7506.981  7507.000  0.500  1.096090  145.193660  48.520114  12.750270
  7507.480  7507.500  0.500  1.099848  145.185910  48.335533  12.657269
  7507.979  7508.000  0.500  1.104597  145.157690  48.097207  12.543096
  7508.483  7508.500  0.500  1.110341  145.146119  47.817883  12.409733
  7508.985  7509.000  0.500  1.117386  145.136938  47.479214  12.249300
  7509.484  7509.500  0.500  1.125672  145.135904  47.087059  12.059640
  7509.989  7510.000  0.500  1.135090  145.126883  46.642783  11.846723
  7510.493  7510.500  0.500  1.145029  145.125242  46.180996  11.622815
  7510.985  7511.000  0.500  1.154989  145.108423  45.717988  11.393076
  7511.487  7511.500  0.500  1.165528  145.084886  45.231355  11.143814
  7511.985  7512.000  0.500  1.177183  145.043846  44.694632  10.878670
  7512.485  7512.500  0.500  1.191125  145.057703  44.080001  10.591178
  7512.987  7513.000  0.500  1.209219  145.057816  43.289645  10.255026
  7513.492  7513.500  0.500  1.232728  145.054605  42.282897  9.854434
  7513.992  7514.000  0.500  1.263823  145.051031  40.987305  9.355622
  7514.494  7514.500  0.500  1.303548  145.029915  39.385265  8.749464
  7514.987  7515.000  0.500  1.351641  145.022136  37.533933  8.062418
  7515.490  7515.500  0.500  1.411023  145.004345  35.365643  7.276503
  7515.992  7516.000  0.500  1.482094  144.998780  32.938147  6.417470
  7516.490  7516.500  0.500  1.560969  144.979531  30.435923  5.562274
  7516.993  7517.000  0.500  1.640322  144.953852  28.109101  4.788603
  7517.496  7517.500  0.500  1.710417  144.949110  26.205393  4.159590
  7517.999  7518.000  0.500  1.768201  144.939858  24.732499  3.658750
  7518.497  7518.500  0.500  1.812950  144.949121  23.651645  3.266111
  7518.993  7519.000  0.500  1.845262  144.943727  22.898771  2.965769
  7519.491  7519.500  0.500  1.865572  144.931486  22.436504  2.757016
  7519.992  7520.000  0.500  1.873522  144.915125  22.256327  2.638557
  7520.498  7520.500  0.500  1.866617  144.897845  22.407860  2.606687
  7520.994  7521.000  0.500  1.844278  144.887593  22.912443  2.658050
  7521.500  7521.500  0.500  1.806956  144.872130  23.781213  2.785356
  7522.001  7522.000  0.500  1.760803  144.855693  24.901680  2.962474
  7522.500  7522.500  0.500  1.709799  144.826000  26.199339  3.171741
  7522.994  7523.000  0.500  1.658469  144.815533  27.577254  3.392435
  7523.497  7523.500  0.500  1.607850  144.805829  29.007202  3.618278
  7523.999  7524.000  0.500  1.561237  144.808521  30.391890  3.831700
  7524.498  7524.500  0.500  1.521790  144.800670  31.612990  4.012114
  7525.004  7525.000  0.500  1.488500  144.788923  32.680435  4.156045
  7525.501  7525.500  0.500  1.460437  144.778337  33.608094  4.260248
  7525.998  7526.000  0.500  1.436776  144.765649  34.409747  4.319833
  7526.495  7526.500  0.500  1.417928  144.754791  35.061847  4.331907
  7526.999  7527.000  0.500  1.402270  144.753414  35.614816  4.318303
  7527.496  7527.500  0.500  1.389736  144.720869  36.055912  4.297410
  7528.003  7528.000  0.500  1.379390  144.697530  36.425019  4.286850
  7528.502  7528.500  0.500  1.370213  144.683038  36.757129  4.300573
  7529.004  7529.000  0.500  1.362623  144.689680  37.038899  4.339012
  7529.497  7529.500  0.500  1.356484  144.667872  37.261358  4.395291
  7529.999  7530.000  0.500  1.351557  144.670946  37.446203  4.476350
  7530.499  7530.500  0.500  1.347463  145.263431  37.753776  4.606909
  7531.004  7531.000  0.500  1.344246  145.257803  37.873989  4.761053
  7531.504  7531.500  0.500  1.341944  145.236512  37.955678  4.948063
  7532.004  7532.000  0.500  1.340452  145.226258  38.009690  5.158050
  7532.509  7532.500  0.500  1.339872  145.209562  38.027375  5.379921
  7533.002  7533.000  0.500  1.339889  145.211100  38.027101  5.592419
  7533.502  7533.500  0.500  1.340558  145.188882  37.995869  5.784197
  7534.002  7534.000  0.500  1.341978  145.152641  37.932471  5.944630
  7534.498  7534.500  0.500  1.343691  145.150254  37.866958  6.073130
  7534.998  7535.000  0.500  1.345266  145.155124  37.808601  6.184405
  7535.504  7535.500  0.500  1.347109  145.134922  37.733743  6.273415
  7536.004  7536.000  0.500  1.348638  145.121146  37.672511  6.347650
  7536.505  7536.500  0.500  1.349589  145.113601  37.634761  6.411282
  7536.998  7537.000  0.500  1.350198  145.112602  37.611568  6.461782
  7537.502  7537.500  0.500  1.349916  145.092578  37.617013  6.510740
  7537.993  7538.000  0.500  1.349030  145.080716  37.647257  6.555803
  7538.494  7538.500  0.500  1.348577  145.071690  37.661983  6.596474
  7539.002  7539.000  0.500  1.347244  145.069731  37.711700  6.638536
  7540.002  7539.990  0.500  1.343606  145.049071  37.843768  6.722405
  7540.997  7540.990  0.500  1.339980  145.007666  37.970396  6.794659
  7542.012  7542.010  0.500  1.337583  145.002332  38.060100  6.842952
  7543.069  7543.060  0.500  1.337407  144.972544  38.058993  6.854173
  7544.125  7544.120  0.500  1.340238  144.967023  37.949948  6.823951
  7545.207  7545.200  0.500  1.346109  144.940656  37.720951  6.757583
  7546.308  7546.300  0.500  1.354377  144.917688  37.404435  6.670816
  7547.424  7547.420  0.500  1.364047  144.875049  37.033567  6.574852
  7548.574  7548.560  0.500  1.374942  144.871589  36.631386  6.475064
  7549.719  7549.710  0.500  1.385501  144.844643  36.239907  6.372407
  7550.900  7550.890  0.500  1.396717  144.825848  35.831041  6.258834
  7552.087  7552.080  0.500  1.407154  144.798542  35.452355  6.147039
  7553.307  7553.300  0.500  1.416132  144.771441  35.128907  6.040148
  7554.542  7554.530  0.500  1.421161  144.748881  34.947229  5.959115
  7555.782  7555.780  0.500  1.421239  144.730673  34.940120  5.912112
  7557.061  7557.050  0.500  1.415600  144.679473  35.125258  5.909882
  7558.348  7558.340  0.500  1.405853  144.659212  35.464339  5.950703
  7559.658  7559.650  0.500  1.394243  144.636480  35.872827  6.017925
  7560.987  7560.980  0.500  1.382569  144.618845  36.289649  6.095077
  7562.337  7562.330  0.500  1.372120  144.599652  36.665970  6.166716
  7563.708  7563.700  0.500  1.363854  144.587857  36.967289  6.219095
  7565.088  7565.080  0.500  1.357294  144.564784  37.204644  6.255641
  7566.495  7566.490  0.500  1.352387  144.534433  37.379814  6.284444
  7567.917  7567.910  0.500  1.348600  144.516779  37.517039  6.313545
  7569.359  7569.350  0.500  1.345598  144.507940  37.627564  6.345918
  7570.824  7570.810  0.500  1.343591  144.484525  37.697034  6.377745
  7572.295  7572.290  0.500  1.341961  144.453521  37.750419  6.414617
  7573.800  7573.790  0.500  1.340380  144.437086  37.805861  6.453025
  7575.322  7575.310  0.500  1.338485  144.416546  37.872175  6.500247
  7576.856  7576.850  0.500  1.336902  144.372934  37.920706  6.543029
  7578.419  7578.410  0.500  1.335245  144.338041  37.974432  6.585421
  7579.990  7579.980  0.500  1.334057  144.341069  38.020356  6.623987
  7581.584  7581.580  0.500  1.333538  144.304916  38.030561  6.649956
  7583.201  7583.190  0.500  1.333651  144.285593  38.021194  6.666798
  7584.838  7584.830  0.500  1.334200  144.241317  37.988671  6.675637
  7586.495  7586.480  0.500  1.335062  144.217908  37.949757  6.682931
  7588.161  7588.150  0.500  1.335649  144.179361  37.917358  6.687088
  7589.849  7589.840  0.500  1.336409  144.137898  37.877676  6.689437
  7591.558  7591.550  0.500  1.337326  144.088409  37.829950  6.687147
  7593.287  7593.280  0.500  1.338856  144.058299  37.764214  6.680674
  7595.044  7595.030  0.500  1.340293  144.004180  37.695829  6.672717
  7596.797  7596.790  0.500  1.342328  143.955974  37.606600  6.657549
  7598.596  7598.580  0.500  1.344514  143.883259  37.505522  6.635878
  7600.387  7600.380  0.500  1.346126  143.739629  37.407752  6.615753
  7602.217  7602.210  0.500  1.347445  142.424533  37.016643  6.541529
  7604.069  7604.050  0.500  1.347410  143.337152  37.255128  6.580874
  7605.918  7605.910  0.500  1.346779  143.311252  37.271895  6.578437
  7607.807  7607.790  0.500  1.345259  143.245084  37.311366  6.579644
  7609.692  7609.690  0.500  1.342886  143.128196  37.369487  6.584182
  7611.622  7611.610  0.500  1.340198  143.074032  37.455914  6.593366
  7613.551  7613.550  0.500  1.337578  143.155376  37.575501  6.609790
  7615.526  7615.510  0.500  1.335320  143.195052  37.670886  6.620693
  7617.489  7617.480  0.500  1.333297  143.171859  37.741075  6.627099
  7619.498  7619.480  0.500  1.331171  143.241068  37.839688  6.635909
  7621.505  7621.490  0.500  1.329502  143.368752  37.936665  6.645679
  7623.531  7623.520  0.500  1.327705  143.454247  38.027544  6.655616
  7625.595  7625.580  0.500  1.325814  143.477314  38.105651  6.666343
  7627.663  7627.650  0.500  1.323535  143.482568  38.194014  6.685942
  7629.749  7629.740  0.500  1.320961  143.456230  38.285404  6.711796
  7631.861  7631.850  0.500  1.317989  143.445870  38.396585  6.745715
  7633.992  7633.980  0.500  1.314985  143.405995  38.501423  6.782776
  7636.134  7636.120  0.500  1.311906  143.371000  38.610717  6.821826
  7638.302  7638.290  0.500  1.308894  143.333519  38.717040  6.863302
  7640.497  7640.480  0.500  1.306269  143.304815  38.811033  6.904383
  7642.697  7642.680  0.500  1.303789  143.272204  38.898556  6.946942
  7644.922  7644.900  0.500  1.301968  143.215354  38.954000  6.984226
  7647.162  7647.150  0.500  1.300141  143.160835  39.010361  7.015273
  7649.434  7649.410  0.500  1.299102  143.137049  39.044433  7.043800
  7651.700  7651.690  0.500  1.298569  143.110191  39.057937  7.061929
  7654.012  7653.990  0.500  1.298399  143.069863  39.053561  7.072916
  7656.316  7656.310  0.500  1.298827  143.026685  39.025070  7.074076
  7658.671  7658.650  0.500  1.299593  142.970409  38.979828  7.067397
  7661.015  7661.000  0.500  1.300326  142.951711  38.946205  7.059377
  7663.393  7663.380  0.500  1.300893  142.896495  38.909062  7.050493
  7665.781  7665.770  0.500  1.301088  142.851883  38.889354  7.045966
  7668.204  7668.190  0.500  1.300995  142.789815  38.876063  7.041455
  7670.632  7670.620  0.500  1.300415  142.779281  38.895730  7.043971
  7673.090  7673.070  0.500  1.298751  142.705739  38.940439  7.051699
  7675.566  7675.550  0.500  1.296912  142.652264  38.997504  7.067855
  7678.062  7678.040  0.500  1.294864  142.597735  39.062513  7.090723
  7680.564  7680.550  0.500  1.292738  142.531880  39.127579  7.119796
  7683.080  7683.070  0.500  1.290670  142.462946  39.189635  7.148199
  7685.637  7685.620  0.500  1.288279  142.325443  39.245523  7.172316
  7688.207  7688.190  0.500  1.286069  139.669282  38.598322  7.066501
  7690.784  7690.770  0.500  1.283998  142.436159  39.444538  7.231566
  7693.394  7693.380  0.500  1.281907  142.350331  39.503310  7.249410
  7696.013  7696.000  0.500  1.279892  142.288162  39.565678  7.267153
  7698.661  7698.650  0.500  1.277774  142.199773  39.624947  7.281496
  7701.321  7701.310  0.500  1.275985  142.126354  39.675414  7.292565
  7704.009  7703.990  0.500  1.274107  141.996237  39.713578  7.301714
  7706.704  7706.690  0.500  1.272386  138.715390  38.862820  7.144393
  7709.423  7709.410  0.500  1.270663  142.064318  39.869719  7.331168
  7712.168  7712.150  0.500  1.268835  141.975996  39.917834  7.345407
  7714.914  7714.900  0.500  1.266928  141.877522  39.966299  7.361210
  7717.700  7717.680  0.500  1.265058  141.766916  40.009875  7.381417
  7720.486  7720.470  0.500  1.262616  139.642304  39.506603  7.300536
  7723.300  7723.290  0.500  1.260470  141.785623  40.199160  7.444141
  7726.136  7726.120  0.500  1.258285  141.700044  40.262760  7.474733
  7728.987  7728.970  0.500  1.256053  141.631787  40.333319  7.507805
  7731.863  7731.850  0.500  1.254351  141.553927  40.379814  7.535046
  7734.754  7734.740  0.500  1.252912  141.469108  40.413728  7.560507
  7737.668  7737.650  0.500  1.251908  141.344941  40.418813  7.578415
  7740.584  7740.570  0.500  1.251057  138.475591  39.631998  7.445831
  7743.538  7743.520  0.500  1.249866  141.346109  40.501782  7.623078
  7746.504  7746.490  0.500  1.248781  141.273896  40.525016  7.638379
  7749.486  7749.470  0.500  1.247672  141.185036  40.544472  7.651249
  7752.493  7752.480  0.500  1.246469  141.108701  40.571340  7.664669
  7755.519  7755.500  0.500  1.245090  141.048300  40.609932  7.680296
  7758.569  7758.550  0.500  1.243466  140.999587  40.661891  7.698694
  7761.625  7761.610  0.500  1.241231  140.931839  40.733285  7.720633
  7764.701  7764.690  0.500  1.238904  140.868260  40.809771  7.743631
  7767.816  7767.790  0.500  1.236280  140.802688  40.897922  7.770810
  7770.926  7770.910  0.500  1.233765  140.721359  40.977240  7.798429
  7774.064  7774.050  0.500  1.231179  140.634179  41.057903  7.824967
  7777.212  7777.200  0.500  1.228765  140.550971  41.132766  7.855420
  7780.397  7780.380  0.500  1.226678  140.488959  41.200536  7.883300
  7783.587  7783.570  0.500  1.224813  140.411015  41.254545  7.908639
  7786.802  7786.790  0.500  1.222984  140.347157  41.311269  7.933787
  7790.034  7790.020  0.500  1.221259  140.269896  41.359797  7.957168
  7793.289  7793.270  0.500  1.219847  140.187824  41.394008  7.976789
  7796.568  7796.550  0.500  1.218125  140.109600  41.442231  7.998776
  7799.855  7799.840  0.500  1.216435  140.020633  41.485949  8.017658
  7803.163  7803.150  0.500  1.214671  139.957582  41.540500  8.039786
  7806.484  7806.470  0.500  1.212630  139.878941  41.601959  8.061907
  7809.839  7809.820  0.500  1.210648  139.792529  41.658765  8.083644
  7813.208  7813.190  0.500  1.208244  139.693845  41.729554  8.106687
  7816.587  7816.570  0.500  1.205772  139.617790  41.810026  8.133983
  7819.996  7819.980  0.500  1.203043  139.550322  41.904041  8.164909
  7823.416  7823.400  0.500  1.200260  139.475281  41.998245  8.197695
  7826.867  7826.850  0.500  1.197619  139.391015  42.083831  8.230010
  7830.324  7830.310  0.500  1.195054  139.263514  42.153336  8.260045
  7833.798  7833.790  0.500  1.192655  139.170744  42.226422  8.293978
  7837.295  7837.290  0.500  1.190681  139.130713  42.297697  8.327441
  7840.820  7840.810  0.500  1.188540  138.903858  42.319260  8.350054
  7844.369  7844.350  0.500  1.186481  138.933448  42.415496  8.388077
  7847.908  7847.900  0.500  1.184586  138.776033  42.447807  8.410992
  7851.490  7851.480  0.500  1.182910  138.730744  42.505142  8.438182
  7855.085  7855.080  0.500  1.181704  138.016937  42.337453  8.420236
  7858.698  7858.690  0.500  1.180247  138.521338  42.554169  8.477795
  7862.335  7862.320  0.500  1.178587  138.440290  42.599913  8.504197
  7865.994  7865.980  0.500  1.176680  138.362028  42.657078  8.529524
  7869.667  7869.650  0.500  1.174983  138.252540  42.695748  8.551017
  7873.354  7873.340  0.500  1.172795  138.154745  42.758977  8.577285
  7877.068  7877.050  0.500  1.170268  138.064960  42.839305  8.608113
  7880.789  7880.780  0.500  1.167593  137.951766  42.918839  8.639380
  7884.532  7884.520  0.500  1.165064  137.864234  43.000226  8.671830
  7888.295  7888.290  0.500  1.162326  137.748845  43.082044  8.704676
  7892.093  7892.080  0.500  1.159519  137.649584  43.172018  8.742935
  7895.901  7895.880  0.500  1.156925  137.543634  43.250821  8.775267
  7899.725  7899.710  0.500  1.154103  136.280067  42.974604  8.735681
  7903.559  7903.550  0.500  1.151591  137.280611  43.398997  8.840223
  7907.423  7907.410  0.500  1.148945  137.193788  43.486452  8.875582
  7911.308  7911.290  0.500  1.146586  137.084170  43.554351  8.907534
  7915.198  7915.190  0.500  1.144304  136.961158  43.614663  8.936042
  7919.125  7919.110  0.500  1.142511  136.845879  43.656153  8.963101
  7923.059  7923.050  0.500  1.140447  136.725643  43.707929  8.990424
  7927.026  7927.010  0.500  1.138396  136.522933  43.732732  9.013373
  7930.995  7930.980  0.500  1.136410  136.404539  43.781678  9.039468
  7934.998  7934.980  0.500  1.134192  136.263300  43.833437  9.067197
  7939.012  7938.990  0.500  1.131716  131.291599  42.338852  8.776001
  7943.039  7943.030  0.500  1.129321  136.755042  44.206451  9.181620
  7947.095  7947.080  0.500  1.126822  136.605426  44.268543  9.212483
  7951.173  7951.150  0.500  1.124273  135.499443  44.022223  9.180317
  7955.262  7955.240  0.500  1.121615  136.290338  44.397013  9.276105
  7959.363  7959.350  0.500  1.118923  136.149820  44.470811  9.311654
  7963.490  7963.480  0.500  1.116317  136.010933  44.541368  9.346184
  7967.646  7967.630  0.500  1.113909  135.866079  44.601212  9.378820
  7971.811  7971.790  0.500  1.111389  135.667132  44.648270  9.408700
  7976.022  7975.980  0.500  1.109063  135.381390  44.657981  9.431761
  7980.200  7980.180  0.500  1.106487  134.223905  44.390364  9.394727
  7984.417  7984.410  0.500  1.103862  134.982644  44.758629  9.494119
  7988.699  7988.650  0.500  1.101600  134.861138  44.819623  9.525992
  7992.929  7992.910  0.500  1.099238  134.746631  44.887430  9.562725
  7997.207  7997.190  0.500  1.096730  134.570703  44.941392  9.594310
  8001.503  8001.490  0.500  1.094794  134.466785  44.993752  9.626465
  8005.829  8005.810  0.500  1.092553  134.335228  45.050568  9.660169
  8010.173  8010.150  0.500  1.090118  134.352324  45.166120  9.706449
  8014.561  8014.510  0.500  1.087509  134.316271  45.271966  9.750378
  8018.915  8018.890  0.500  1.084783  134.226190  45.365128  9.790813
  8023.298  8023.280  0.500  1.082085  134.090992  45.441837  9.830110
  8027.723  8027.700  0.500  1.079354  133.961573  45.522152  9.868896
  8032.155  8032.130  0.500  1.076503  133.804919  45.598749  9.907619
  8036.609  8036.580  0.500  1.073802  133.655230  45.670895  9.945090
  8041.071  8041.050  0.500  1.071008  133.502311  45.746285  9.981397
  8045.516  8045.540  0.500  1.068287  133.335785  45.813731  10.013771
  8050.082  8050.050  0.500  1.065576  133.161139  45.877932  10.050634
  8054.571  8054.580  0.500  1.062856  132.897256  45.911717  10.079513
  8059.145  8059.130  0.500  1.060328  130.607645  45.234960  9.951806
