# XDI/1.0 BlueSky/1.10.0 BMM/2023-1.0-py310-tiled
# Beamline.name: BMM (06BM) -- Beamline for Materials Measurement (NIST)
# Beamline.xray_source: NSLS-II three-pole wiggler
# Beamline.collimation: paraboloid mirror, 5 nm Rh on 30 nm Pt
# Beamline.focusing: not in use
# Beamline.harmonic_rejection: flat mirror, Pt stripe, pitch = 7.0 mrad relative to beam
# Beamline.software: Bluesky 1.10.0, Ophyd 1.7.0, DataBroker 2.0.0b13, Python 3.10.8, 2023-1.0-py310-tiled
# Detector.I0: 10 cm N2
# Detector.I1: 25 cm N2
# Detector.I2: 25 cm N2
# Element.symbol: Pt
# Element.edge: L1
# Element.reference: Pt
# Element.reference_material: Pt foil
# Facility.name: NSLS-II
# Facility.energy: 3.0
# Facility.current: 400.3
# Facility.mode: top-off
# Facility.GUP: 301027
# Facility.SAF: 310583
# Facility.cycle: 2023-2
# Mono.name: Si(111)
# Mono.d_spacing: 3.1351860
# Mono.encoder_resolution: 0.0000050 deg/ct
# Mono.angle_offset: 16.0754326 deg
# Mono.scan_mode: pseudo channel cut
# Mono.scan_type: step
# Mono.direction: forward in energy
# Sample.name: PtCl2
# Sample.prep: powder on tape
# Sample.x: 119.711 mm
# Sample.y: 114.376 mm
# Sample.SDD_position: 205.000 mm
# Scan.experimenters: Bruce Ravel
# Scan.edge_energy: 13880.5
# Scan.start_time: 2023-06-27T19:43:56
# Scan.end_time: 2023-06-27T19:51:46
# Scan.transient_id: 85271
# Scan.uid: ef1f90cd-ec03-4686-895c-3f464d443e44
# Scan.plot_hint: ln(I0/It)  --  ln($5/$6)
# Column.1: energy eV
# Column.2: requested_energy eV
# Column.3: measurement_time seconds
# Column.4: xmu 
# Column.5: I0 nA
# Column.6: It nA
# Column.7: Ir nA
# ///////////
# sample courtesy Simon Bare and Shelly Kelly
# -----------
# energy  requested_energy  measurement_time  xmu  I0  It  Ir
  13680.501  13680.500  0.500  0.564363  38.739048  22.031755  5.065976
  13690.537  13690.500  0.500  0.562153  38.711900  22.065035  5.076575
  13700.563  13700.500  0.500  0.559581  38.624981  22.072193  5.086978
  13710.563  13710.500  0.500  0.556903  38.584005  22.107906  5.113660
  13720.586  13720.500  0.500  0.554228  38.497054  22.117150  5.150133
  13730.575  13730.500  0.500  0.551654  38.400651  22.118637  5.180924
  13740.578  13740.500  0.500  0.549571  38.312211  22.113697  5.188958
  13750.596  13750.500  0.500  0.547739  38.256981  22.122324  5.191850
  13760.463  13760.500  0.500  0.546385  38.156539  22.094127  5.188086
  13770.511  13770.500  0.500  0.544825  38.087714  22.088708  5.192010
  13780.523  13780.500  0.500  0.543345  37.988043  22.063529  5.192815
  13790.500  13790.500  0.500  0.541681  37.913975  22.057199  5.201084
  13800.517  13800.500  0.500  0.539922  37.825578  22.044501  5.212991
  13810.565  13810.500  0.500  0.538017  37.746366  22.040288  5.232563
  13820.545  13820.500  0.500  0.536193  37.670780  22.036316  5.247647
  13830.564  13830.500  0.500  0.534339  37.590434  22.030121  5.258736
  13840.548  13840.500  0.500  0.532896  37.513084  22.016540  5.268483
  13850.563  13850.500  0.500  0.531966  37.442490  21.995556  5.266020
  13852.516  13852.500  0.500  0.531923  37.383924  21.962082  5.258051
  13854.511  13854.500  0.500  0.531944  37.364610  21.950272  5.254227
  13856.523  13856.500  0.500  0.531790  37.319083  21.926919  5.246641
  13858.470  13858.500  0.500  0.531744  37.323638  21.930600  5.244139
  13860.475  13860.500  0.500  0.532013  37.323820  21.924815  5.240618
  13862.498  13862.500  0.500  0.532257  37.295665  21.902925  5.230056
  13864.504  13864.500  0.500  0.532548  37.283549  21.889440  5.223975
  13866.495  13866.500  0.500  0.533045  37.273810  21.872848  5.213220
  13868.502  13868.500  0.500  0.533692  37.232345  21.834381  5.197062
  13870.460  13870.500  0.500  0.534474  37.202932  21.800083  5.178641
  13870.729  13870.800  0.500  0.534762  37.227787  21.808367  5.180090
  13871.057  13871.100  0.500  0.534912  37.212259  21.796001  5.174219
  13871.343  13871.400  0.500  0.535135  37.195997  21.781606  5.168999
  13871.637  13871.700  0.500  0.535277  37.181606  21.770098  5.164543
  13871.948  13872.000  0.500  0.535703  37.182391  21.761278  5.160376
  13872.242  13872.300  0.500  0.535746  37.170152  21.753177  5.156146
  13872.545  13872.600  0.500  0.535994  37.178426  21.752634  5.154162
  13872.873  13872.900  0.500  0.536173  37.172122  21.745052  5.150165
  13873.167  13873.200  0.500  0.536533  37.168014  21.734812  5.145385
  13873.470  13873.500  0.500  0.536878  37.143744  21.713135  5.137960
  13873.781  13873.800  0.500  0.537091  37.122932  21.696340  5.131568
  13874.067  13874.100  0.500  0.537320  37.126491  21.693459  5.127689
  13874.378  13874.400  0.500  0.537696  37.113577  21.677751  5.120648
  13874.681  13874.700  0.500  0.538071  37.103259  21.663613  5.113515
  13874.966  13875.000  0.500  0.538286  37.107088  21.661190  5.110569
  13875.278  13875.300  0.500  0.538683  37.107159  21.652627  5.104281
  13875.589  13875.600  0.500  0.539123  37.109419  21.644415  5.098649
  13875.875  13875.900  0.500  0.539548  37.116137  21.639152  5.093914
  13876.186  13876.200  0.500  0.540022  37.107837  21.624056  5.085569
  13876.497  13876.500  0.500  0.540568  37.103748  21.609868  5.078694
  13876.775  13876.800  0.500  0.541038  37.111894  21.604447  5.072445
  13877.069  13877.100  0.500  0.541588  37.117287  21.595705  5.065053
  13877.380  13877.400  0.500  0.542035  37.088929  21.569571  5.053367
  13877.666  13877.700  0.500  0.542740  37.084996  21.552085  5.043010
  13877.986  13878.000  0.500  0.543539  37.075974  21.529621  5.031984
  13878.264  13878.300  0.500  0.544069  37.076367  21.518461  5.022988
  13878.567  13878.600  0.500  0.544760  37.064861  21.496913  5.011490
  13878.870  13878.900  0.500  0.545785  37.071277  21.478618  5.000038
  13879.156  13879.200  0.500  0.546447  37.062936  21.459573  4.988798
  13879.476  13879.500  0.500  0.547577  37.031482  21.417140  4.970440
  13879.770  13879.800  0.500  0.548430  37.040448  21.404066  4.959196
  13880.081  13880.100  0.500  0.549515  37.018470  21.368167  4.942713
  13880.401  13880.400  0.500  0.550680  37.007744  21.337089  4.923611
  13880.679  13880.700  0.500  0.551701  37.011895  21.317722  4.911946
  13880.982  13881.000  0.500  0.552843  36.997728  21.285233  4.892753
  13881.293  13881.300  0.500  0.554367  36.993437  21.250346  4.873813
  13881.588  13881.600  0.500  0.555487  36.955543  21.204823  4.853451
  13881.891  13881.900  0.500  0.556974  36.944398  21.166936  4.832591
  13882.186  13882.200  0.500  0.558566  36.939807  21.130633  4.813089
  13882.489  13882.500  0.500  0.560160  36.946576  21.100850  4.794402
  13882.809  13882.800  0.500  0.562027  36.956669  21.067237  4.773477
  13883.103  13883.100  0.500  0.563672  36.944271  21.025563  4.753050
  13883.398  13883.400  0.500  0.565678  36.959503  20.992080  4.732666
  13883.684  13883.700  0.500  0.567460  36.972540  20.962080  4.715096
  13884.004  13884.000  0.500  0.569502  36.929999  20.895253  4.686208
  13884.308  13884.300  0.500  0.571656  36.938404  20.855033  4.664204
  13884.611  13884.600  0.500  0.573704  36.934122  20.809959  4.641073
  13884.914  13884.900  0.500  0.575930  36.931159  20.762034  4.619175
  13885.200  13885.200  0.500  0.578295  36.899469  20.695205  4.590999
  13885.504  13885.500  0.500  0.580759  36.894609  20.641550  4.568264
  13885.773  13885.800  0.500  0.583074  36.896073  20.594646  4.545545
  13886.093  13886.100  0.500  0.585731  36.859826  20.519820  4.517482
  13886.371  13886.400  0.500  0.588106  36.883226  20.484143  4.497091
  13886.700  13886.700  0.500  0.590910  36.856866  20.412192  4.466702
  13886.969  13887.000  0.500  0.593364  36.854978  20.361113  4.446131
  13887.289  13887.300  0.500  0.595963  36.840677  20.300386  4.419776
  13887.576  13887.600  0.500  0.598546  36.845950  20.250901  4.398676
  13887.896  13887.900  0.500  0.601349  36.827816  20.184284  4.370367
  13888.182  13888.200  0.500  0.603827  36.817514  20.128695  4.345124
  13888.503  13888.500  0.500  0.606295  36.842926  20.092936  4.325121
  13888.772  13888.800  0.500  0.608820  36.823582  20.031746  4.300027
  13889.101  13889.100  0.500  0.611335  36.811870  19.975080  4.273268
  13889.413  13889.400  0.500  0.613883  36.797868  19.916676  4.247962
  13889.708  13889.700  0.500  0.616329  36.799691  19.868987  4.226105
  13889.994  13890.000  0.500  0.618677  36.782884  19.813346  4.199952
  13890.323  13890.300  0.500  0.621115  36.773988  19.760311  4.176657
  13890.610  13890.600  0.500  0.623213  36.762201  19.712574  4.152877
  13890.913  13890.900  0.500  0.625498  36.750338  19.661247  4.127919
  13891.208  13891.200  0.500  0.627456  36.749016  19.622085  4.105306
  13891.495  13891.500  0.500  0.629494  36.736114  19.575265  4.082095
  13891.807  13891.800  0.500  0.631384  36.721192  19.530351  4.058145
  13892.093  13892.100  0.500  0.633074  36.709933  19.491395  4.036865
  13892.397  13892.400  0.500  0.634784  36.719349  19.463085  4.017089
  13892.683  13892.700  0.500  0.636143  36.714298  19.433982  3.998793
  13893.004  13893.000  0.500  0.637369  36.704468  19.404969  3.978036
  13893.274  13893.300  0.500  0.638410  36.705916  19.385559  3.962387
  13893.586  13893.600  0.500  0.639361  36.693220  19.360426  3.945124
  13893.864  13893.900  0.500  0.640331  36.682993  19.336259  3.929254
  13894.193  13894.200  0.500  0.641086  36.677989  19.319031  3.912377
  13894.471  13894.500  0.500  0.641637  36.683174  19.311112  3.901955
  13894.783  13894.800  0.500  0.642250  36.649253  19.281450  3.886200
  13895.095  13895.100  0.500  0.642510  36.655872  19.279906  3.876144
  13895.399  13895.400  0.500  0.642594  36.644188  19.272153  3.864792
  13895.694  13895.700  0.500  0.642960  36.641355  19.263600  3.855969
  13895.998  13896.000  0.500  0.643084  36.646796  19.264081  3.850033
  13896.318  13896.300  0.500  0.643129  36.616834  19.247453  3.840190
  13896.605  13896.600  0.500  0.643082  36.600244  19.239643  3.832953
  13896.917  13896.900  0.500  0.643245  36.599917  19.236328  3.826918
  13897.196  13897.200  0.500  0.642965  36.608842  19.246417  3.825758
  13897.516  13897.500  0.500  0.643026  36.596195  19.238592  3.821326
  13897.786  13897.800  0.500  0.643070  36.734972  19.310692  3.833023
  13898.115  13898.100  0.500  0.642978  36.721430  19.305361  3.830036
  13898.402  13898.400  0.500  0.642856  36.722495  19.308274  3.829171
  13898.706  13898.700  0.500  0.642949  36.733807  19.312431  3.830609
  13899.010  13899.000  0.500  0.642852  36.747920  19.321706  3.830975
  13899.305  13899.300  0.500  0.642756  36.744127  19.321575  3.830653
  13899.618  13899.600  0.500  0.642775  36.745489  19.321925  3.831344
  13899.896  13899.900  0.500  0.642819  36.723702  19.309612  3.830332
  13900.191  13900.200  0.500  0.642754  36.731841  19.315152  3.832361
  13900.478  13900.500  0.500  0.642710  36.741097  19.320870  3.835908
  13900.791  13900.800  0.500  0.642868  36.728439  19.311156  3.835669
  13901.103  13901.100  0.500  0.642949  36.722013  19.306226  3.837550
  13901.382  13901.400  0.500  0.643002  36.713393  19.300666  3.839014
  13901.686  13901.700  0.500  0.642952  36.726598  19.308567  3.843856
  13901.973  13902.000  0.500  0.643181  36.734860  19.308497  3.846672
  13902.302  13902.300  0.500  0.643314  36.711681  19.293752  3.847825
  13902.589  13902.600  0.500  0.643483  36.707566  19.288329  3.850953
  13902.893  13902.900  0.500  0.643605  36.699908  19.281942  3.853219
  13903.189  13903.200  0.500  0.643866  36.696487  19.275122  3.857121
  13903.509  13903.500  0.500  0.644054  36.683546  19.264696  3.859982
  13903.813  13903.800  0.500  0.644161  36.685245  19.263523  3.864899
  13904.092  13904.100  0.500  0.644336  36.691140  19.263245  3.869283
  13904.413  13904.400  0.500  0.644499  36.680825  19.254693  3.872401
  13904.709  13904.700  0.500  0.644804  36.682584  19.249753  3.876255
  13905.013  13905.000  0.500  0.644977  36.682359  19.246303  3.880036
  13905.308  13905.300  0.500  0.645215  36.709977  19.256218  3.886125
  13905.503  13905.500  0.500  0.645463  36.725347  19.259486  3.890869
  13906.525  13906.490  0.500  0.645976  36.712902  19.243102  3.901236
  13907.513  13907.490  0.500  0.646712  36.721991  19.233706  3.910621
  13908.527  13908.510  0.500  0.647065  36.700823  19.215823  3.916366
  13909.559  13909.560  0.500  0.647313  36.669497  19.194672  3.917186
  13910.640  13910.620  0.500  0.647242  36.659167  19.190624  3.917392
  13911.714  13911.700  0.500  0.647232  36.642327  19.182002  3.915995
  13912.839  13912.800  0.500  0.647073  36.664133  19.196458  3.916552
  13913.938  13913.920  0.500  0.646897  36.682656  19.209546  3.914350
  13915.080  13915.060  0.500  0.646534  36.636879  19.192536  3.902029
  13916.222  13916.210  0.500  0.646162  36.627779  19.194900  3.893100
  13917.407  13917.390  0.500  0.645454  36.610164  19.199261  3.880959
  13918.583  13918.580  0.500  0.644493  36.590670  19.207497  3.870970
  13919.802  13919.800  0.500  0.643173  36.556576  19.214940  3.860110
  13921.055  13921.030  0.500  0.641998  36.578507  19.249074  3.854584
  13922.299  13922.280  0.500  0.640482  36.574163  19.275988  3.852861
  13923.586  13923.550  0.500  0.638837  36.570286  19.305670  3.852687
  13924.849  13924.840  0.500  0.637135  36.551425  19.328589  3.855872
  13926.170  13926.150  0.500  0.635528  36.553259  19.360645  3.867458
  13927.475  13927.480  0.500  0.634083  36.540216  19.381722  3.881671
  13928.848  13928.830  0.500  0.632793  36.540583  19.406928  3.902008
  13930.230  13930.200  0.500  0.631811  36.520872  19.415515  3.922319
  13931.586  13931.580  0.500  0.631049  36.546746  19.444093  3.942940
  13933.019  13932.990  0.500  0.630455  36.523435  19.443234  3.956833
  13934.419  13934.410  0.500  0.630210  36.516291  19.444202  3.967470
  13935.844  13935.850  0.500  0.630037  36.507217  19.442724  3.974885
  13937.304  13937.310  0.500  0.630058  36.498927  19.437906  3.978179
  13938.806  13938.790  0.500  0.630200  36.478365  19.424203  3.976910
  13940.325  13940.290  0.500  0.630334  36.480506  19.422729  3.976679
  13941.845  13941.810  0.500  0.630402  36.469878  19.415756  3.976993
  13943.357  13943.350  0.500  0.630614  36.448767  19.400396  3.975023
  13944.920  13944.910  0.500  0.630750  36.425940  19.385617  3.973102
  13946.492  13946.480  0.500  0.631012  36.442172  19.389165  3.974508
  13948.098  13948.080  0.500  0.631311  36.414486  19.368642  3.971774
  13949.705  13949.690  0.500  0.631660  36.388906  19.348290  3.966279
  13951.354  13951.330  0.500  0.632276  36.385416  19.334514  3.963874
  13952.987  13952.980  0.500  0.632573  36.358583  19.314531  3.959214
  13954.663  13954.650  0.500  0.633177  36.344069  19.295156  3.955177
  13956.348  13956.340  0.500  0.634017  36.328232  19.270553  3.948672
  13958.067  13958.050  0.500  0.634631  36.327450  19.258319  3.943324
  13959.795  13959.780  0.500  0.635329  36.306101  19.233565  3.935315
  13961.532  13961.530  0.500  0.635945  36.275091  19.205306  3.926586
  13963.286  13963.290  0.500  0.636538  36.261810  19.186893  3.919411
  13965.110  13965.080  0.500  0.636836  36.233735  19.166312  3.913658
  13966.891  13966.880  0.500  0.637045  36.209553  19.149531  3.909564
  13968.715  13968.710  0.500  0.636551  36.167917  19.136960  3.907348
  13970.548  13970.550  0.500  0.635670  36.072403  19.103242  3.904060
  13972.407  13972.410  0.500  0.634614  35.382690  18.757781  3.840304
  13974.267  13974.290  0.500  0.632807  33.644326  17.868470  3.662702
  13976.195  13976.190  0.500  0.631170  35.427420  18.846287  3.872158
  13978.107  13978.110  0.500  0.629457  36.143894  19.260400  3.963542
  13980.045  13980.050  0.500  0.627872  36.176555  19.308387  3.979892
  13981.967  13982.010  0.500  0.626353  36.166788  19.332516  3.989981
  13983.991  13983.980  0.500  0.624908  36.144723  19.348653  3.996394
  13985.948  13985.980  0.500  0.623548  36.134197  19.369353  4.003998
  13988.025  13987.990  0.500  0.622357  36.122948  19.386392  4.009657
  13990.034  13990.020  0.500  0.621454  36.107514  19.395607  4.011844
  13992.087  13992.080  0.500  0.620498  36.086702  19.402971  4.013625
  13994.097  13994.150  0.500  0.619583  36.065158  19.409141  4.013887
  13996.220  13996.240  0.500  0.618994  36.055102  19.415161  4.016338
  13998.300  13998.350  0.500  0.618135  36.040119  19.423780  4.019604
  14000.441  14000.480  0.500  0.617686  36.020988  19.422178  4.022933
  14002.582  14002.620  0.500  0.616904  35.993727  19.422669  4.026607
  14004.775  14004.790  0.500  0.616457  36.002479  19.436083  4.033652
  14006.961  14006.980  0.500  0.616102  35.973866  19.427524  4.036544
  14009.790  14009.180  0.500  0.615709  35.941717  19.417796  4.038573
  14011.317  14011.400  0.500  0.615506  35.955471  19.429173  4.043218
  14013.728  14013.650  0.500  0.615439  35.889033  19.394571  4.037440
  14015.864  14015.910  0.500  0.615571  35.873994  19.383873  4.035003
  14018.191  14018.190  0.500  0.615657  35.860860  19.375119  4.030950
  14020.467  14020.490  0.500  0.615852  35.840586  19.360385  4.025517
  14022.795  14022.810  0.500  0.616361  35.818727  19.338736  4.017938
  14025.149  14025.150  0.500  0.616595  35.800952  19.324620  4.011411
  14027.470  14027.500  0.500  0.616965  35.787487  19.310204  4.004135
  14029.869  14029.880  0.500  0.617307  35.773394  19.295991  4.002045
  14032.226  14032.270  0.500  0.617451  35.751731  19.281538  3.999672
  14034.670  14034.690  0.500  0.617495  35.730088  19.269011  3.999515
  14037.115  14037.120  0.500  0.617094  35.717877  19.270150  4.004855
  14039.552  14039.570  0.500  0.616719  35.683411  19.258778  4.008888
  14042.050  14042.050  0.500  0.615860  35.658274  19.261752  4.015753
  14044.557  14044.540  0.500  0.615110  35.652361  19.273005  4.023899
  14047.031  14047.050  0.500  0.614058  35.622869  19.277326  4.030675
  14049.558  14049.570  0.500  0.612993  35.599333  19.285128  4.039564
  14052.103  14052.120  0.500  0.612028  35.591821  19.299674  4.050455
  14054.674  14054.690  0.500  0.610906  35.545920  19.296408  4.056865
  14057.273  14057.270  0.500  0.609999  35.525424  19.302785  4.063806
  14059.890  14059.880  0.500  0.609100  35.501655  19.307214  4.069379
  14062.481  14062.500  0.500  0.608176  35.447647  19.295677  4.068618
  14065.135  14065.150  0.500  0.607227  35.438394  19.308949  4.075828
  14067.798  14067.810  0.500  0.606383  35.378462  19.292576  4.077392
  14070.488  14070.490  0.500  0.605490  35.201457  19.213192  4.067256
  14073.178  14073.190  0.500  0.604722  33.847277  18.488269  3.922110
  14075.922  14075.910  0.500  0.603788  34.150165  18.671140  3.969146
  14078.650  14078.650  0.500  0.602911  35.485884  19.418459  4.132097
  14081.388  14081.400  0.500  0.602284  35.476440  19.425457  4.137982
  14084.169  14084.180  0.500  0.601486  35.303180  19.346020  4.121672
  14086.952  14086.970  0.500  0.600796  35.370160  19.396102  4.131331
  14089.797  14089.790  0.500  0.600162  35.361883  19.403867  4.129535
  14092.626  14092.620  0.500  0.599484  35.327139  19.397960  4.125419
  14095.490  14095.470  0.500  0.599018  35.314342  19.399969  4.124754
  14098.347  14098.350  0.500  0.598620  35.260248  19.377959  4.119808
  14101.249  14101.240  0.500  0.598201  35.225222  19.366820  4.117248
  14104.160  14104.150  0.500  0.597967  35.187759  19.350742  4.115670
  14107.090  14107.070  0.500  0.597551  35.139043  19.332000  4.111623
  14110.039  14110.020  0.500  0.597410  35.040007  19.280243  4.102480
  14112.989  14112.990  0.500  0.597249  35.109135  19.321389  4.113403
  14115.958  14115.970  0.500  0.596770  35.005329  19.273488  4.105657
  14118.980  14118.980  0.500  0.596415  34.513699  19.009549  4.052782
  14122.003  14122.000  0.500  0.596069  33.129565  18.253500  3.898634
  14125.063  14125.050  0.500  0.595541  35.151106  19.377539  4.145287
  14128.115  14128.110  0.500  0.595187  35.089966  19.350685  4.147768
  14131.169  14131.190  0.500  0.594484  35.007121  19.318577  4.149239
  14134.258  14134.290  0.500  0.593714  34.999848  19.329449  4.157390
  14137.419  14137.410  0.500  0.592908  34.984349  19.336458  4.165463
  14140.565  14140.550  0.500  0.592183  34.963398  19.338902  4.171413
  14143.685  14143.700  0.500  0.591417  34.936079  19.338593  4.177064
  14146.850  14146.880  0.500  0.590593  34.916945  19.343946  4.182534
  14150.061  14150.070  0.500  0.589779  34.890165  19.344843  4.188139
  14153.316  14153.290  0.500  0.588797  34.843047  19.337696  4.189011
  14156.512  14156.520  0.500  0.588023  34.800915  19.329278  4.188808
  14159.762  14159.770  0.500  0.587189  34.668258  19.271651  4.176312
  14163.075  14163.050  0.500  0.586242  34.609906  19.257453  4.170783
  14166.346  14166.340  0.500  0.585243  33.321224  18.558941  4.018243
  14169.644  14169.650  0.500  0.584167  34.061492  18.991674  4.112732
  14172.962  14172.970  0.500  0.583230  34.787166  19.414464  4.207207
  14176.325  14176.320  0.500  0.582284  34.777581  19.427489  4.215192
  14179.725  14179.690  0.500  0.581261  34.745250  19.429300  4.220315
  14183.064  14183.070  0.500  0.580390  34.687270  19.413781  4.221021
  14186.468  14186.480  0.500  0.579491  34.665319  19.418935  4.226309
  14189.916  14189.900  0.500  0.578836  34.643756  19.419576  4.228057
  14193.367  14193.350  0.500  0.577879  34.622531  19.426264  4.232758
  14196.801  14196.810  0.500  0.577167  34.592133  19.423023  4.235239
  14200.299  14200.290  0.500  0.576574  34.531126  19.400269  4.236065
  14203.807  14203.790  0.500  0.575827  34.520774  19.408953  4.243942
  14207.335  14207.310  0.500  0.575263  34.487769  19.401324  4.249835
  14210.873  14210.850  0.500  0.574741  34.470750  19.401880  4.262452
  14214.414  14214.400  0.500  0.574264  34.447844  19.398250  4.270208
  14218.009  14217.980  0.500  0.573381  34.508674  19.449672  4.292138
  14221.597  14221.580  0.500  0.572898  34.473628  19.439297  4.298918
  14225.213  14225.190  0.500  0.572277  34.446372  19.436002  4.305766
  14228.831  14228.820  0.500  0.571664  34.416809  19.431214  4.309441
  14232.513  14232.480  0.500  0.570768  34.390740  19.433905  4.310591
  14236.144  14236.150  0.500  0.570326  34.369058  19.430237  4.311468
  14239.856  14239.840  0.500  0.569621  34.337438  19.426047  4.308738
  14243.562  14243.550  0.500  0.568791  34.302404  19.422346  4.307830
  14247.305  14247.280  0.500  0.568012  34.273377  19.421031  4.307438
  14250.996  14251.020  0.500  0.567227  34.240623  19.417707  4.308215
  14254.806  14254.790  0.500  0.566553  34.210566  19.413746  4.312594
  14258.590  14258.580  0.500  0.565582  34.173102  19.411327  4.316011
  14262.403  14262.380  0.500  0.564883  34.130449  19.400657  4.316890
  14266.209  14266.210  0.500  0.564058  34.065430  19.379675  4.319608
  14270.071  14270.050  0.500  0.563254  33.300293  18.959634  4.229278
  14273.926  14273.910  0.500  0.562257  33.448094  19.062772  4.254250
  14277.792  14277.790  0.500  0.561442  34.067864  19.431826  4.339344
  14281.723  14281.690  0.500  0.560576  34.030635  19.427406  4.341106
  14285.629  14285.610  0.500  0.559575  34.008120  19.433996  4.345343
  14289.564  14289.550  0.500  0.558553  33.984600  19.440428  4.351463
  14293.492  14293.510  0.500  0.557648  33.948595  19.437416  4.357541
  14297.502  14297.480  0.500  0.556761  33.895519  19.424250  4.360258
  14301.524  14301.480  0.500  0.555812  33.865163  19.425276  4.366328
  14305.477  14305.490  0.500  0.554827  33.854830  19.438476  4.375581
  14309.539  14309.530  0.500  0.553927  33.802677  19.426003  4.378666
  14313.622  14313.580  0.500  0.552839  33.797222  19.444029  4.390462
  14317.689  14317.650  0.500  0.552220  33.758121  19.433556  4.396681
  14321.749  14321.740  0.500  0.551315  33.725457  19.432328  4.404295
  14325.893  14325.850  0.500  0.550459  33.690620  19.428885  4.409727
  14330.002  14329.980  0.500  0.549524  33.671393  19.435953  4.415393
  14334.124  14334.130  0.500  0.548885  33.634882  19.427296  4.417035
  14338.328  14338.290  0.500  0.547979  33.613943  19.432791  4.421578
  14342.490  14342.480  0.500  0.547250  33.564666  19.418446  4.419752
  14346.682  14346.680  0.500  0.546492  33.546590  19.422707  4.423547
  14350.948  14350.910  0.500  0.545730  33.517022  19.420389  4.426789
  14355.189  14355.150  0.500  0.544934  33.488185  19.419129  4.429767
  14359.415  14359.410  0.500  0.544163  33.357343  19.358169  4.422220
  14363.716  14363.690  0.500  0.543140  33.423247  19.416282  4.438910
  14368.029  14367.990  0.500  0.542425  33.341936  19.382890  4.436645
  14372.325  14372.310  0.500  0.541744  33.362865  19.408281  4.448334
  14376.643  14376.650  0.500  0.540663  33.261376  19.370155  4.444267
  14381.054  14381.010  0.500  0.539794  33.296938  19.407730  4.458377
  14385.404  14385.390  0.500  0.538931  33.227206  19.383811  4.459484
  14389.792  14389.780  0.500  0.537860  33.250994  19.418474  4.473404
  14394.247  14394.200  0.500  0.536803  33.207216  19.413412  4.478604
  14398.624  14398.630  0.500  0.535866  33.184398  19.418264  4.486578
  14403.084  14403.080  0.500  0.534751  33.135381  19.411210  4.491108
  14407.593  14407.550  0.500  0.533998  33.100462  19.405351  4.497416
  14412.050  14412.040  0.500  0.532870  32.905293  19.312716  4.482113
  14416.573  14416.550  0.500  0.531824  33.035574  19.409472  4.509406
  14421.109  14421.080  0.500  0.530853  32.971005  19.390346  4.511922
  14425.665  14425.630  0.500  0.529730  32.956514  19.403605  4.519802
  14430.224  14430.200  0.500  0.528815  32.939897  19.411574  4.525014
  14434.832  14434.780  0.500  0.528016  32.789603  19.338453  4.513972
  14439.388  14439.390  0.500  0.526959  32.883667  19.414444  4.534317
  14444.020  14444.010  0.500  0.525967  32.826481  19.399918  4.534862
  14448.683  14448.660  0.500  0.525299  32.814434  19.405751  4.541795
  14453.330  14453.320  0.500  0.524460  32.785699  19.405027  4.543712
  14458.035  14458.000  0.500  0.523520  32.746740  19.400194  4.547236
  14462.724  14462.700  0.500  0.522427  32.719993  19.405547  4.551787
  14467.426  14467.420  0.500  0.521621  32.673635  19.393694  4.554123
  14472.187  14472.160  0.500  0.520590  32.639415  19.393355  4.558565
  14476.922  14476.910  0.500  0.519813  32.608583  19.390102  4.562237
  14481.698  14481.690  0.500  0.518747  32.538116  19.368824  4.562690
  14486.522  14486.490  0.500  0.517914  32.538599  19.385265  4.572257
  14491.304  14491.300  0.500  0.516950  32.504128  19.383409  4.578119
  14496.154  14496.130  0.500  0.515973  32.478682  19.387163  4.585575
  14501.043  14500.990  0.500  0.515002  32.434606  19.379667  4.591265
  14505.862  14505.860  0.500  0.513950  32.399675  19.379170  4.597822
  14510.795  14510.750  0.500  0.512992  32.385064  19.388988  4.607720
  14515.704  14515.660  0.500  0.512177  32.308046  19.358643  4.609065
  14520.634  14520.590  0.500  0.511183  32.294837  19.369986  4.619907
  14525.596  14525.530  0.500  0.509954  32.279385  19.384523  4.629073
  14530.542  14530.500  0.500  0.509003  32.226708  19.371297  4.632897
  14535.529  14535.490  0.500  0.508170  32.198012  19.370175  4.638681
  14540.519  14540.490  0.500  0.507094  32.157304  19.366523  4.645665
  14545.532  14545.520  0.500  0.506027  32.133500  19.372836  4.650708
  14550.603  14550.560  0.500  0.505102  32.043879  19.336682  4.647562
  14555.650  14555.620  0.500  0.504136  32.056802  19.363178  4.661010
  14560.738  14560.700  0.500  0.502885  32.023802  19.367468  4.667035
  14565.847  14565.800  0.500  0.501974  31.983262  19.360582  4.671412
  14570.942  14570.920  0.500  0.500701  31.943152  19.360931  4.675778
  14576.106  14576.060  0.500  0.499795  31.910430  19.358624  4.681956
  14581.273  14581.220  0.500  0.498620  31.874380  19.359477  4.687616
  14586.425  14586.400  0.500  0.497712  31.835258  19.353299  4.690589
  14591.628  14591.590  0.500  0.496641  31.800917  19.353130  4.693886
  14596.862  14596.810  0.500  0.495709  31.764486  19.348987  4.696243
  14602.053  14602.040  0.500  0.494575  31.728345  19.348907  4.701081
  14607.370  14607.290  0.500  0.493653  31.689533  19.343060  4.704153
  14612.606  14612.560  0.500  0.492680  31.643231  19.333588  4.708565
  14617.911  14617.850  0.500  0.491381  31.606070  19.335996  4.713744
  14623.193  14623.160  0.500  0.490466  31.576309  19.335471  4.721985
  14628.515  14628.490  0.500  0.489467  31.538987  19.331922  4.728309
  14633.907  14633.840  0.500  0.488417  31.499602  19.328056  4.735180
  14639.247  14639.210  0.500  0.487325  31.465639  19.328312  4.744668
  14644.657  14644.590  0.500  0.486261  31.382486  19.297752  4.744448
  14650.061  14650.000  0.500  0.485379  31.390781  19.319893  4.757810
  14655.450  14655.420  0.500  0.484269  31.358118  19.321223  4.765714
  14660.928  14660.870  0.500  0.483440  31.265091  19.279880  4.761253
  14666.372  14666.330  0.500  0.482137  31.253389  19.297786  4.771381
  14671.859  14671.810  0.500  0.481114  31.243003  19.311135  4.782477
  14677.339  14677.310  0.500  0.480157  31.208404  19.308219  4.787300
  14682.872  14682.830  0.500  0.479117  31.159757  19.298181  4.792103
  14688.408  14688.370  0.500  0.478170  31.111408  19.286492  4.796086
  14693.949  14693.920  0.500  0.476935  31.093532  19.299214  4.803040
  14699.522  14699.500  0.500  0.475930  31.054666  19.294485  4.808902
  14705.109  14705.100  0.500  0.474880  30.995236  19.277785  4.810632
  14710.766  14710.710  0.500  0.473904  30.986899  19.291419  4.821857
  14716.380  14716.350  0.500  0.472730  30.963082  19.299239  4.829189
  14722.028  14722.000  0.500  0.471700  30.932450  19.300009  4.834571
  14727.698  14727.670  0.500  0.470424  30.898137  19.303214  4.842024
  14733.383  14733.360  0.500  0.469222  30.858781  19.301822  4.847072
