# XDI/1.0 BlueSky/1.10.0 BMM/2023-1.0-py310-tiled
# Beamline.name: BMM (06BM) -- Beamline for Materials Measurement (NIST)
# Beamline.xray_source: NSLS-II three-pole wiggler
# Beamline.collimation: paraboloid mirror, 5 nm Rh on 30 nm Pt
# Beamline.focusing: not in use
# Beamline.harmonic_rejection: flat mirror, Pt stripe, pitch = 7.0 mrad relative to beam
# Beamline.software: Bluesky 1.10.0, Ophyd 1.7.0, DataBroker 2.0.0b13, Python 3.10.8, 2023-1.0-py310-tiled
# Detector.I0: 10 cm N2
# Detector.I1: 25 cm N2
# Detector.I2: 25 cm N2
# Element.symbol: Cu
# Element.edge: K
# Element.reference: Cu
# Element.reference_material: Cu foil
# Facility.name: NSLS-II
# Facility.energy: 3.0
# Facility.current: 400.5
# Facility.mode: top-off
# Facility.GUP: 123456
# Facility.SAF: 301027
# Facility.cycle: 2023-2
# Mono.name: Si(111)
# Mono.d_spacing: 3.1351860
# Mono.encoder_resolution: 0.0000050 deg/ct
# Mono.angle_offset: 16.0754326 deg
# Mono.scan_mode: pseudo channel cut
# Mono.scan_type: step
# Mono.direction: forward in energy
# Sample.name: CuO
# Sample.prep: powder in PEG pellet
# Sample.x: 116.329 mm
# Sample.y: 114.126 mm
# Sample.SDD_position: 205.000 mm
# Scan.experimenters: Bruce Ravel
# Scan.edge_energy: 8978.9
# Scan.start_time: 2023-05-06T12:44:34
# Scan.end_time: 2023-05-06T12:52:37
# Scan.transient_id: 74798
# Scan.uid: 13a5d6a6-9e02-4598-89d1-f56ab40b3f90
# Scan.plot_hint: ln(I0/It)  --  ln($5/$6)
# Column.1: energy eV
# Column.2: requested_energy eV
# Column.3: measurement_time seconds
# Column.4: xmu 
# Column.5: I0 nA
# Column.6: It nA
# Column.7: Ir nA
# ///////////
# sample courtesy Martin Stennett, University of Sheffield
# -----------
# energy  requested_energy  measurement_time  xmu  I0  It  Ir
  8778.923  8778.900  0.500  0.405082  123.017044  82.042792  42.524012
  8788.913  8788.900  0.500  0.401602  122.795522  82.180538  42.688358
  8798.920  8798.900  0.500  0.397945  122.590678  82.344019  42.862577
  8809.027  8808.900  0.500  0.394389  122.386908  82.500014  43.040445
  8818.970  8818.900  0.500  0.390734  122.167108  82.653410  43.211750
  8829.108  8828.900  0.500  0.387462  121.964193  82.786532  43.378533
  8839.011  8838.900  0.500  0.383932  121.773265  82.949253  43.558320
  8848.926  8848.900  0.500  0.380520  121.563324  83.089249  43.721348
  8858.915  8858.900  0.500  0.377070  121.346579  83.227767  43.886467
  8868.924  8868.900  0.500  0.373718  121.145981  83.369141  44.051005
  8878.929  8878.900  0.500  0.370368  120.944526  83.509760  44.213203
  8888.909  8888.900  0.500  0.367186  120.739743  83.634077  44.366233
  8898.920  8898.900  0.500  0.363881  120.525074  83.761808  44.517802
  8908.922  8908.900  0.500  0.360734  120.151708  83.765511  44.601203
  8918.914  8918.900  0.500  0.357660  120.197159  84.055183  44.825757
  8928.908  8928.900  0.500  0.354528  119.913271  84.119664  44.929861
  8938.911  8938.900  0.500  0.351735  119.783833  84.263882  45.059030
  8948.917  8948.900  0.500  0.349489  119.566717  84.300297  45.101409
  8950.899  8950.900  0.500  0.349331  119.448518  84.230242  45.061423
  8952.893  8952.900  0.500  0.348963  119.408080  84.232771  45.060270
  8954.895  8954.900  0.500  0.348747  119.428590  84.265425  45.070623
  8956.887  8956.900  0.500  0.348513  119.383117  84.253011  45.050374
  8958.887  8958.900  0.500  0.348220  119.346152  84.251655  45.028717
  8960.891  8960.900  0.500  0.348056  119.295511  84.229675  44.991138
  8962.893  8962.900  0.500  0.348029  119.253086  84.202020  44.939581
  8964.892  8964.900  0.500  0.348312  118.937307  83.955338  44.762397
  8966.892  8966.900  0.500  0.348604  119.151118  84.081678  44.762048
  8968.883  8968.900  0.500  0.349064  119.112317  84.015611  44.628997
  8969.170  8969.200  0.500  0.349244  119.107428  83.997023  44.604534
  8969.468  8969.500  0.500  0.349579  119.093201  83.958928  44.567629
  8969.769  8969.800  0.500  0.349460  119.087822  83.965073  44.548601
  8970.064  8970.100  0.500  0.349518  119.084758  83.958060  44.527262
  8970.372  8970.400  0.500  0.349817  119.067156  83.920603  44.487196
  8970.674  8970.700  0.500  0.349808  119.060819  83.916839  44.463122
  8970.982  8971.000  0.500  0.350000  119.056244  83.897523  44.423979
  8971.276  8971.300  0.500  0.350232  119.049242  83.873097  44.389502
  8971.581  8971.600  0.500  0.350360  119.044471  83.859046  44.349268
  8971.879  8971.900  0.500  0.350557  119.029405  83.831927  44.306621
  8972.188  8972.200  0.500  0.350799  119.023058  83.807137  44.258037
  8972.479  8972.500  0.500  0.351073  119.009642  83.774737  44.206620
  8972.780  8972.800  0.500  0.351471  119.003154  83.736812  44.151446
  8973.085  8973.100  0.500  0.351640  118.999941  83.720453  44.103983
  8973.387  8973.400  0.500  0.351851  119.000512  83.703159  44.052832
  8973.688  8973.700  0.500  0.352106  118.994723  83.677726  43.994627
  8973.987  8974.000  0.500  0.352494  118.983462  83.637371  43.919246
  8974.285  8974.300  0.500  0.352748  118.970061  83.606700  43.850576
  8974.583  8974.600  0.500  0.353039  118.960713  83.575863  43.771927
  8974.885  8974.900  0.500  0.353532  118.958027  83.532751  43.681992
  8975.179  8975.200  0.500  0.353858  118.951372  83.500831  43.590936
  8975.481  8975.500  0.500  0.354461  118.940544  83.442891  43.475886
  8975.779  8975.800  0.500  0.354931  118.928740  83.395413  43.356313
  8976.088  8976.100  0.500  0.355467  118.922601  83.346424  43.226427
  8976.383  8976.400  0.500  0.356060  118.914122  83.291069  43.084238
  8976.688  8976.700  0.500  0.356843  118.903295  83.218298  42.913649
  8976.993  8977.000  0.500  0.357626  118.890974  83.144584  42.723076
  8977.295  8977.300  0.500  0.358508  118.883411  83.065966  42.506913
  8977.590  8977.600  0.500  0.359643  118.870688  82.962857  42.246871
  8977.899  8977.900  0.500  0.360922  118.863134  82.851559  41.933551
  8978.197  8978.200  0.500  0.362490  118.850254  82.712768  41.558506
  8978.492  8978.500  0.500  0.364578  118.847278  82.538173  41.087513
  8978.798  8978.800  0.500  0.367265  118.833347  82.307114  40.478653
  8979.100  8979.100  0.500  0.370174  118.830017  82.065704  39.699929
  8979.395  8979.400  0.500  0.372609  118.811752  81.853518  38.743069
  8979.686  8979.700  0.500  0.374503  118.808828  81.696628  37.519530
  8979.985  8980.000  0.500  0.375542  118.790716  81.599382  35.924275
  8980.290  8980.300  0.500  0.375997  118.786170  81.559080  33.935610
  8980.596  8980.600  0.500  0.376693  118.777969  81.496723  31.581452
  8980.895  8980.900  0.500  0.377881  118.721877  81.361528  29.149642
  8981.204  8981.200  0.500  0.380245  118.609710  81.092743  26.803941
  8981.499  8981.500  0.500  0.383504  118.507606  80.759314  24.904128
  8981.794  8981.800  0.500  0.387502  118.453922  80.400644  23.493228
  8982.096  8982.100  0.500  0.392474  118.419276  79.978442  22.482716
  8982.395  8982.400  0.500  0.398293  118.459617  79.541541  21.830669
  8982.701  8982.700  0.500  0.404889  118.555752  79.082689  21.428288
  8982.999  8983.000  0.500  0.412088  118.647232  78.576022  21.212192
  8983.305  8983.300  0.500  0.420673  118.652806  77.907967  21.095052
  8983.597  8983.600  0.500  0.430495  118.651859  77.145937  21.045353
  8983.892  8983.900  0.500  0.442398  118.639717  76.225328  20.997334
  8984.188  8984.200  0.500  0.457479  118.641100  75.085211  20.883643
  8984.497  8984.500  0.500  0.476769  118.629269  73.643392  20.642883
  8984.792  8984.800  0.500  0.499812  118.614392  71.956757  20.239482
  8985.095  8985.100  0.500  0.527373  118.607900  69.996859  19.653559
  8985.401  8985.400  0.500  0.557974  118.603911  67.885045  18.905538
  8985.700  8985.700  0.500  0.588904  118.601075  65.815922  18.086598
  8986.009  8986.000  0.500  0.619024  118.591154  63.857753  17.244985
  8986.308  8986.300  0.500  0.644120  118.589569  62.274304  16.509089
  8986.603  8986.600  0.500  0.663362  118.578347  61.081681  15.892780
  8986.892  8986.900  0.500  0.676322  118.571457  60.291657  15.426030
  8987.201  8987.200  0.500  0.684156  118.998105  60.036407  15.114161
  8987.494  8987.500  0.500  0.687588  118.982334  59.822821  14.832999
  8987.789  8987.800  0.500  0.688080  118.976276  59.790326  14.596630
  8988.095  8988.100  0.500  0.686994  118.965194  59.849749  14.365786
  8988.401  8988.400  0.500  0.685674  118.956084  59.924212  14.120800
  8988.707  8988.700  0.500  0.685741  118.945560  59.914868  13.826267
  8989.007  8989.000  0.500  0.688207  118.925256  59.757125  13.484911
  8989.302  8989.300  0.500  0.694090  118.919002  59.403450  13.080208
  8989.602  8989.600  0.500  0.703502  118.902532  58.838815  12.609393
  8989.908  8989.900  0.500  0.716536  118.884472  58.068083  12.086032
  8990.203  8990.200  0.500  0.732089  118.872893  57.166372  11.529997
  8990.506  8990.500  0.500  0.749548  118.867055  56.174200  10.966020
  8990.795  8990.800  0.500  0.767368  118.851988  55.175047  10.410343
  8991.091  8991.100  0.500  0.785414  118.828104  54.177425  9.867407
  8991.390  8991.400  0.500  0.804540  118.799432  53.138248  9.316110
  8991.690  8991.700  0.500  0.823804  118.773137  52.112850  8.789047
  8992.003  8992.000  0.500  0.844685  118.739663  51.021584  8.262543
  8992.302  8992.300  0.500  0.866021  118.681722  49.920148  7.773973
  8992.595  8992.600  0.500  0.888471  118.595996  48.776661  7.313371
  8992.898  8992.900  0.500  0.910843  118.352367  47.599563  6.880067
  8993.201  8993.200  0.500  0.931758  117.637298  46.332694  6.467260
  8993.503  8993.500  0.500  0.950315  116.724560  45.127972  6.100456
  8993.810  8993.800  0.500  0.965489  116.369399  44.313108  5.816474
  8994.106  8994.100  0.500  0.976892  116.720236  43.942761  5.628029
  8994.402  8994.400  0.500  0.985904  117.341971  43.780510  5.497473
  8994.695  8994.700  0.500  0.993413  117.979251  43.688969  5.405134
  8994.991  8995.000  0.500  1.000355  118.473647  43.568548  5.339237
  8995.301  8995.300  0.500  1.007090  118.719240  43.365825  5.293208
  8995.600  8995.600  0.500  1.013675  118.762974  43.097037  5.268696
  8995.893  8995.900  0.500  1.020121  118.764404  42.820649  5.265435
  8996.196  8996.200  0.500  1.026654  118.757652  42.539411  5.281960
  8996.496  8996.500  0.500  1.033697  118.742334  42.235399  5.310265
  8996.806  8996.800  0.500  1.040972  118.728030  41.924211  5.344464
  8997.102  8997.100  0.500  1.048854  118.713061  41.589822  5.378293
  8997.409  8997.400  0.500  1.057638  118.697615  41.220719  5.410965
  8997.705  8997.700  0.500  1.066445  118.685537  40.855136  5.439199
  8998.008  8998.000  0.500  1.075036  118.675933  40.502385  5.466061
  8998.308  8998.300  0.500  1.082649  118.647001  40.185389  5.493714
  8998.601  8998.600  0.500  1.088457  118.631581  39.947472  5.525430
  8998.897  8998.900  0.500  1.092296  118.617168  39.789567  5.561131
  8999.194  8999.200  0.500  1.093597  118.593392  39.729894  5.599563
  8999.501  8999.500  0.500  1.092729  118.575605  39.758408  5.640298
  8999.801  8999.800  0.500  1.090176  118.555784  39.853377  5.675950
  9000.104  9000.100  0.500  1.086603  118.532833  39.988284  5.702142
  9000.400  9000.400  0.500  1.082367  118.508842  40.149935  5.715901
  9000.700  9000.700  0.500  1.078112  118.472395  40.308735  5.712564
  9001.004  9001.000  0.500  1.073890  118.432350  40.465594  5.692818
  9001.307  9001.300  0.500  1.069553  118.374295  40.621526  5.655694
  9001.611  9001.600  0.500  1.064710  118.286395  40.788423  5.605684
  9001.904  9001.900  0.500  1.059609  118.095471  40.930882  5.541012
  9002.208  9002.200  0.500  1.053759  117.653804  41.017050  5.456130
  9002.494  9002.500  0.500  1.047284  116.909636  41.022352  5.359565
  9002.794  9002.800  0.500  1.039677  116.226814  41.094193  5.266913
  9003.097  9003.100  0.500  1.031147  116.133949  41.413108  5.205838
  9003.391  9003.400  0.500  1.022290  116.656893  41.969669  5.185903
  9003.701  9003.700  0.500  1.013797  117.395109  42.595492  5.190197
  9003.897  9003.900  0.500  1.008700  117.822301  42.968937  5.198183
  9004.899  9004.890  0.500  0.986573  118.501352  44.183499  5.304849
  9005.887  9005.890  0.500  0.970874  118.457731  44.866101  5.558753
  9006.924  9006.910  0.500  0.956904  118.400175  45.475140  5.926926
  9007.983  9007.960  0.500  0.944552  118.334343  46.014731  6.259160
  9009.055  9009.020  0.500  0.937199  118.182220  46.294739  6.493217
  9010.125  9010.100  0.500  0.936146  116.693661  45.759833  6.603194
  9011.219  9011.200  0.500  0.939661  116.986644  45.713716  6.792280
  9012.342  9012.320  0.500  0.942824  118.340012  46.096564  6.965672
  9013.482  9013.460  0.500  0.944387  118.324224  46.018430  6.973663
  9014.629  9014.610  0.500  0.943258  118.280952  46.053542  6.936123
  9015.812  9015.790  0.500  0.940835  118.235864  46.147658  6.878365
  9017.010  9016.980  0.500  0.937761  118.187859  46.270964  6.784851
  9018.214  9018.200  0.500  0.934089  118.102009  46.407436  6.649673
  9019.461  9019.430  0.500  0.928815  117.664732  46.480115  6.470535
  9020.656  9020.680  0.500  0.920630  116.024738  46.208945  6.247825
  9022.149  9021.950  0.500  0.907717  118.075566  47.636920  6.239285
  9023.316  9023.240  0.500  0.895674  118.077695  48.214938  6.152403
  9024.571  9024.550  0.500  0.885271  118.029356  48.699173  6.055594
  9025.869  9025.880  0.500  0.877715  117.992237  49.053109  5.976672
  9027.216  9027.230  0.500  0.872187  117.961685  49.312277  5.960468
  9028.592  9028.600  0.500  0.868863  117.930719  49.463486  6.053088
  9029.979  9029.980  0.500  0.869327  117.892832  49.424640  6.217337
  9031.384  9031.390  0.500  0.873857  117.855269  49.185578  6.405390
  9032.814  9032.810  0.500  0.881194  117.816944  48.810134  6.582357
  9034.254  9034.250  0.500  0.890257  117.782042  48.355422  6.714960
  9035.720  9035.710  0.500  0.900108  117.744679  47.866221  6.776940
  9037.183  9037.190  0.500  0.909958  117.715839  47.385482  6.777181
  9038.689  9038.690  0.500  0.920551  117.673311  46.869214  6.716530
  9040.213  9040.210  0.500  0.930936  117.373156  46.266667  6.594192
  9041.761  9041.750  0.500  0.941197  116.415160  45.420608  6.408367
  9043.314  9043.310  0.500  0.949374  117.458321  45.454386  6.357534
  9044.885  9044.880  0.500  0.955272  117.474170  45.193199  6.313086
  9046.478  9046.480  0.500  0.959705  117.459893  44.987823  6.312155
  9048.089  9048.090  0.500  0.963923  117.423526  44.784601  6.287818
  9049.726  9049.730  0.500  0.967619  117.383808  44.604278  6.211069
  9051.370  9051.380  0.500  0.969725  117.351054  44.498023  6.122535
  9053.042  9053.050  0.500  0.969277  117.319450  44.505972  6.075016
  9054.733  9054.740  0.500  0.966361  117.277221  44.619875  6.085858
  9056.446  9056.450  0.500  0.961775  117.225484  44.805201  6.107207
  9058.171  9058.180  0.500  0.957023  117.194941  45.006877  6.090106
  9059.924  9059.930  0.500  0.952378  117.144973  45.197150  6.025720
  9061.692  9061.690  0.500  0.948139  117.022100  45.341544  5.953671
  9063.485  9063.480  0.500  0.943548  115.914032  45.118900  5.858631
  9065.279  9065.280  0.500  0.939428  116.973697  45.719326  5.884736
  9067.106  9067.110  0.500  0.936106  116.971198  45.870496  5.845325
  9068.955  9068.950  0.500  0.933060  116.939399  45.997900  5.786180
  9070.812  9070.810  0.500  0.929833  116.899850  46.130980  5.710068
  9072.680  9072.690  0.500  0.926909  116.865955  46.252651  5.657428
  9074.588  9074.590  0.500  0.924347  116.819781  46.352975  5.663460
  9076.518  9076.510  0.500  0.922128  116.772981  46.437354  5.739712
  9078.452  9078.450  0.500  0.920133  116.719673  46.508848  5.877051
  9080.409  9080.410  0.500  0.918423  115.913114  46.266470  6.010090
  9082.380  9082.380  0.500  0.917163  116.424802  46.529307  6.199846
  9084.381  9084.380  0.500  0.916008  116.545324  46.631292  6.350203
  9086.383  9086.390  0.500  0.914486  116.518237  46.691500  6.483294
  9088.418  9088.420  0.500  0.912661  116.468001  46.756592  6.578137
  9090.489  9090.480  0.500  0.911160  116.426235  46.810059  6.631578
  9092.554  9092.550  0.500  0.910256  116.388483  46.837172  6.716532
  9094.642  9094.640  0.500  0.909322  116.341766  46.862121  6.857654
  9096.759  9096.750  0.500  0.908259  116.291888  46.891865  7.011273
  9098.880  9098.880  0.500  0.906944  116.250417  46.936839  7.125240
  9101.028  9101.020  0.500  0.906119  116.195354  46.953335  7.147218
  9103.187  9103.190  0.500  0.905326  115.186301  46.582513  7.025844
  9105.376  9105.380  0.500  0.904476  115.971305  46.939829  6.953085
  9107.588  9107.580  0.500  0.903901  116.004023  46.980078  6.810412
  9109.811  9109.800  0.500  0.903592  115.958557  46.976187  6.675505
  9112.053  9112.050  0.500  0.902841  115.910451  46.991974  6.576819
  9114.322  9114.310  0.500  0.901763  115.857453  47.021153  6.521325
  9116.595  9116.590  0.500  0.900839  115.802230  47.042176  6.512243
  9118.905  9118.890  0.500  0.900912  115.754727  47.019444  6.517931
  9121.220  9121.210  0.500  0.901419  115.694745  46.971285  6.501611
  9123.551  9123.550  0.500  0.902448  115.640743  46.901042  6.415022
  9125.911  9125.900  0.500  0.904480  115.583783  46.782811  6.233931
  9128.291  9128.280  0.500  0.907170  115.620653  46.672015  6.000603
  9130.686  9130.670  0.500  0.909739  115.781950  46.617203  5.821032
  9133.101  9133.090  0.500  0.911348  115.705536  46.511540  5.738673
  9135.527  9135.520  0.500  0.912250  115.632194  46.440138  5.745233
  9137.984  9137.970  0.500  0.912533  115.559163  46.397703  5.801238
  9140.453  9140.450  0.500  0.912058  115.447232  46.374752  5.881588
  9142.948  9142.940  0.500  0.910964  114.795512  46.163452  5.971075
  9145.463  9145.450  0.500  0.909801  115.327096  46.431208  6.177029
  9147.980  9147.970  0.500  0.908634  115.424166  46.524526  6.396173
  9150.537  9150.520  0.500  0.907175  115.322481  46.551432  6.639230
  9153.092  9153.090  0.500  0.905425  115.189358  46.579122  6.899571
  9155.682  9155.670  0.500  0.903660  114.745834  46.481732  7.135795
  9158.291  9158.280  0.500  0.901839  114.529548  46.478678  7.338367
  9160.912  9160.900  0.500  0.899129  115.170547  46.865674  7.487069
  9163.578  9163.550  0.500  0.895874  115.035160  46.963188  7.450256
  9166.217  9166.210  0.500  0.892197  114.711600  47.003599  7.289100
  9168.908  9168.890  0.500  0.888310  113.333427  46.619743  7.011210
  9171.608  9171.590  0.500  0.883718  114.992483  47.519893  6.943259
  9174.331  9174.310  0.500  0.879634  114.886395  47.670358  6.833575
  9177.071  9177.050  0.500  0.876771  114.771527  47.759247  6.784962
  9179.815  9179.800  0.500  0.875656  114.527458  47.710821  6.771630
  9182.602  9182.580  0.500  0.876489  112.765244  46.937622  6.695260
  9185.386  9185.370  0.500  0.877857  114.700592  47.677904  6.834621
  9188.209  9188.190  0.500  0.879260  114.587296  47.564056  6.836554
  9191.034  9191.020  0.500  0.879842  114.490754  47.496296  6.842796
  9193.893  9193.870  0.500  0.879157  114.404885  47.493211  6.873692
  9196.757  9196.750  0.500  0.877439  114.303133  47.532552  6.926426
  9199.660  9199.640  0.500  0.875419  114.212474  47.590899  6.945255
  9202.565  9202.550  0.500  0.873360  114.141687  47.659446  6.882706
  9205.501  9205.470  0.500  0.871538  114.055086  47.710107  6.749265
  9208.431  9208.420  0.500  0.869298  113.983737  47.787203  6.634853
  9211.418  9211.390  0.500  0.866884  113.919441  47.875698  6.595918
  9214.378  9214.370  0.500  0.865584  113.856249  47.911377  6.606788
  9217.398  9217.380  0.500  0.865075  113.778662  47.903083  6.640467
  9220.414  9220.400  0.500  0.865680  113.712058  47.846075  6.700440
  9223.475  9223.450  0.500  0.866816  113.637937  47.760595  6.796724
  9226.523  9226.510  0.500  0.867640  113.553306  47.685749  6.934251
  9229.607  9229.590  0.500  0.867559  113.485141  47.660985  7.095711
  9232.707  9232.690  0.500  0.866084  113.406137  47.698117  7.257714
  9235.821  9235.810  0.500  0.863754  113.330271  47.777398  7.399651
  9238.966  9238.950  0.500  0.861171  113.261450  47.871878  7.499047
  9242.110  9242.100  0.500  0.858749  113.182878  47.954637  7.537235
  9245.297  9245.280  0.500  0.857322  113.112447  47.993263  7.525971
  9248.496  9248.470  0.500  0.856642  113.036923  47.993848  7.504537
  9251.702  9251.690  0.500  0.856113  112.966237  47.989178  7.501275
  9254.929  9254.920  0.500  0.855631  112.890797  47.980277  7.495907
  9258.180  9258.170  0.500  0.854863  112.810164  47.982826  7.485581
  9261.474  9261.450  0.500  0.854106  112.731459  47.985652  7.470835
  9264.752  9264.740  0.500  0.852977  112.644695  48.002896  7.446486
  9268.073  9268.050  0.500  0.851308  112.567660  48.050229  7.416789
  9271.381  9271.370  0.500  0.848922  112.484613  48.129472  7.391963
  9274.748  9274.720  0.500  0.846249  112.177656  48.126592  7.364697
  9278.113  9278.090  0.500  0.843129  112.355988  48.353744  7.380945
  9281.492  9281.470  0.500  0.840808  112.268203  48.428212  7.379842
  9284.900  9284.880  0.500  0.839187  112.175513  48.466723  7.374409
  9288.310  9288.300  0.500  0.838265  112.088145  48.473675  7.364826
  9291.772  9291.750  0.500  0.837390  111.426953  48.229904  7.318657
  9295.220  9295.210  0.500  0.836441  111.909757  48.484865  7.352065
  9298.706  9298.690  0.500  0.835101  110.180376  47.799618  7.248386
  9302.197  9302.190  0.500  0.834004  111.833416  48.570017  7.395552
  9305.729  9305.710  0.500  0.832419  111.137346  48.344296  7.419039
  9309.278  9309.250  0.500  0.830684  111.667124  48.659064  7.535384
  9312.815  9312.800  0.500  0.828859  111.579593  48.709727  7.616583
  9316.400  9316.380  0.500  0.826783  111.489614  48.771614  7.700284
  9319.998  9319.980  0.500  0.824811  111.380946  48.820258  7.773014
  9323.615  9323.590  0.500  0.822959  110.364286  48.464329  7.754001
  9327.246  9327.220  0.500  0.821754  111.229673  48.903222  7.841637
  9330.898  9330.880  0.500  0.820759  111.142634  48.913589  7.858506
  9334.576  9334.550  0.500  0.819652  111.042858  48.923788  7.895433
  9338.253  9338.240  0.500  0.818403  110.955871  48.946580  7.955102
  9341.982  9341.950  0.500  0.816868  110.872092  48.984760  8.034654
  9345.696  9345.680  0.500  0.815089  110.768779  49.026237  8.087271
  9349.434  9349.420  0.500  0.812858  110.674894  49.094100  8.101878
  9353.222  9353.190  0.500  0.810638  110.581666  49.161747  8.104097
  9356.997  9356.980  0.500  0.808719  110.487675  49.214351  8.116509
  9360.806  9360.780  0.500  0.807609  110.400649  49.230201  8.116891
  9364.629  9364.610  0.500  0.806698  110.306087  49.232851  8.111836
  9368.470  9368.450  0.500  0.806117  110.206890  49.217143  8.103401
  9372.334  9372.310  0.500  0.805841  110.107368  49.186305  8.093010
  9376.208  9376.190  0.500  0.805396  110.018849  49.168641  8.085695
  9380.120  9380.090  0.500  0.804621  109.919099  49.162152  8.080871
  9384.028  9384.010  0.500  0.803346  109.811736  49.176779  8.080229
  9387.962  9387.950  0.500  0.801833  109.715075  49.207860  8.085809
  9391.933  9391.910  0.500  0.800288  109.621970  49.242155  8.099274
  9395.889  9395.880  0.500  0.798439  109.522697  49.288595  8.113532
  9399.898  9399.880  0.500  0.796464  109.420901  49.340115  8.136313
  9403.914  9403.890  0.500  0.794388  109.317431  49.395934  8.173703
  9407.945  9407.930  0.500  0.792285  109.211976  49.452169  8.221422
  9411.999  9411.980  0.500  0.790348  109.103555  49.498831  8.280769
  9416.076  9416.050  0.500  0.788659  108.998751  49.534895  8.342047
  9420.156  9420.140  0.500  0.787186  108.892113  49.559395  8.397223
  9424.270  9424.250  0.500  0.785431  108.779007  49.594889  8.438584
  9428.400  9428.380  0.500  0.783600  108.674541  49.638035  8.471484
  9432.548  9432.530  0.500  0.781411  108.570019  49.698990  8.497651
  9436.720  9436.690  0.500  0.779108  107.949703  49.528966  8.484723
  9440.895  9440.880  0.500  0.777115  108.332137  49.803592  8.556914
  9445.094  9445.080  0.500  0.775423  108.235278  49.843309  8.591767
  9449.334  9449.310  0.500  0.773770  108.132462  49.878349  8.635048
  9453.564  9453.550  0.500  0.772306  108.023448  49.901041  8.680011
  9457.828  9457.810  0.500  0.770644  107.894149  49.924221  8.716445
  9462.119  9462.090  0.500  0.769275  107.784163  49.941668  8.741824
  9466.406  9466.390  0.500  0.767969  107.673599  49.955618  8.763606
  9470.732  9470.710  0.500  0.766873  107.569487  49.962055  8.788975
  9475.074  9475.050  0.500  0.765830  107.448834  49.958082  8.809873
  9479.439  9479.410  0.500  0.764588  107.335898  49.967610  8.826193
  9483.801  9483.790  0.500  0.763195  107.227756  49.986841  8.837909
  9488.206  9488.180  0.500  0.761456  107.106350  50.017159  8.848777
  9492.622  9492.600  0.500  0.759678  106.992061  50.052715  8.856553
  9497.043  9497.030  0.500  0.757761  106.882936  50.097596  8.867594
  9501.491  9501.480  0.500  0.756182  106.757253  50.117769  8.875852
  9505.983  9505.950  0.500  0.754604  106.640597  50.142051  8.883217
  9510.463  9510.440  0.500  0.753019  106.519401  50.164506  8.897355
  9514.964  9514.950  0.500  0.751425  106.399952  50.188233  8.921265
  9519.515  9519.480  0.500  0.749685  106.291812  50.224517  8.956732
  9524.056  9524.030  0.500  0.747717  106.165583  50.263686  9.005324
  9528.612  9528.600  0.500  0.745941  106.046796  50.296678  9.055961
  9533.205  9533.180  0.500  0.744110  105.929644  50.333214  9.102836
  9537.818  9537.790  0.500  0.742279  105.806991  50.367050  9.141696
  9542.435  9542.410  0.500  0.740809  105.688574  50.384732  9.175224
  9547.065  9547.060  0.500  0.739298  105.556728  50.397972  9.205683
  9551.730  9551.720  0.500  0.737814  105.442065  50.417974  9.233740
  9556.413  9556.400  0.500  0.736239  105.315351  50.436777  9.261874
  9561.123  9561.100  0.500  0.734734  105.195269  50.455131  9.290752
  9565.839  9565.820  0.500  0.733015  105.058319  50.476149  9.320521
  9570.583  9570.560  0.500  0.731353  104.918370  50.492723  9.350840
  9575.340  9575.310  0.500  0.729738  104.801983  50.518235  9.381239
  9580.105  9580.090  0.500  0.728326  104.672567  50.527158  9.409528
  9584.903  9584.890  0.500  0.727034  104.537726  50.527330  9.440183
  9589.718  9589.700  0.500  0.725426  104.437993  50.560319  9.474355
  9594.546  9594.530  0.500  0.723445  104.306392  50.596784  9.502114
  9599.395  9599.390  0.500  0.721543  104.183760  50.633481  9.531280
  9604.272  9604.260  0.500  0.719621  104.060952  50.671124  9.557278
  9609.175  9609.150  0.500  0.717927  103.935906  50.696020  9.579714
  9614.075  9614.060  0.500  0.716064  103.809388  50.728721  9.606193
  9619.003  9618.990  0.500  0.714232  103.658219  50.747727  9.628435
  9623.950  9623.930  0.500  0.712195  103.540459  50.793462  9.653557
  9628.921  9628.900  0.500  0.710516  103.411778  50.815581  9.676941
  9633.905  9633.890  0.500  0.708628  103.074183  50.745389  9.683505
  9638.903  9638.890  0.500  0.706683  103.137692  50.875513  9.730257
  9643.938  9643.920  0.500  0.704884  103.016918  50.907462  9.762429
  9648.979  9648.960  0.500  0.703051  102.669011  50.828612  9.772758
  9654.037  9654.020  0.500  0.701422  102.755237  50.954220  9.822434
  9659.121  9659.100  0.500  0.699764  102.618824  50.971052  9.853033
  9664.218  9664.200  0.500  0.698124  102.478534  50.984869  9.881502
  9669.345  9669.320  0.500  0.696623  102.325021  50.984988  9.907911
  9674.474  9674.460  0.500  0.694957  102.473829  51.144247  9.967926
  9679.640  9679.620  0.500  0.693407  102.352450  51.162907  10.002270
  9684.828  9684.800  0.500  0.691610  102.206362  51.181771  10.031939
  9690.018  9689.990  0.500  0.690101  102.064257  51.187829  10.063238
  9695.222  9695.210  0.500  0.688490  101.930217  51.203032  10.096783
  9700.464  9700.440  0.500  0.686878  101.793554  51.216883  10.125651
  9705.712  9705.690  0.500  0.685266  101.640239  51.222246  10.154442
  9710.982  9710.960  0.500  0.683655  101.499028  51.233518  10.185422
  9716.261  9716.250  0.500  0.681858  101.398608  51.274881  10.221712
  9721.588  9721.560  0.500  0.680010  101.263329  51.301210  10.255037
  9726.920  9726.890  0.500  0.678329  101.114976  51.312257  10.284444
  9732.259  9732.240  0.500  0.676548  100.981635  51.335924  10.315613
  9737.632  9737.610  0.500  0.674558  100.844871  51.368502  10.348042
  9743.007  9742.990  0.500  0.672786  100.700583  51.385996  10.374800
  9748.425  9748.400  0.500  0.670940  100.573873  51.416155  10.403931
  9753.845  9753.820  0.500  0.669085  100.426568  51.436189  10.432318
  9759.300  9759.270  0.500  0.667366  100.283466  51.451260  10.459117
  9764.749  9764.730  0.500  0.665481  100.124219  51.466468  10.487059
  9770.229  9770.210  0.500  0.663616  99.915334  51.454952  10.510090
  9775.769  9775.710  0.500  0.661767  99.885319  51.534741  10.552810
  9781.291  9781.230  0.500  0.660043  99.627511  51.490394  10.572121
  9786.806  9786.770  0.500  0.658237  99.578036  51.557860  10.612906
  9792.382  9792.320  0.500  0.656553  98.429020  51.048833  10.535267
  9797.964  9797.900  0.500  0.654750  99.287181  51.586852  10.673124
  9803.574  9803.500  0.500  0.652913  98.998887  51.531605  10.689172
  9809.186  9809.110  0.500  0.651091  99.043356  51.648792  10.741460
  9814.821  9814.750  0.500  0.649465  98.885337  51.650300  10.770588
  9820.471  9820.400  0.500  0.647615  98.143748  51.357856  10.738789
  9826.149  9826.070  0.500  0.646060  98.592361  51.672898  10.836311
  9831.787  9831.760  0.500  0.644243  98.431936  51.682655  10.869002
