# XDI/1.0 BlueSky/1.10.0 BMM/2023-1.0-py310-tiled
# Beamline.name: BMM (06BM) -- Beamline for Materials Measurement (NIST)
# Beamline.xray_source: NSLS-II three-pole wiggler
# Beamline.collimation: paraboloid mirror, 5 nm Rh on 30 nm Pt
# Beamline.focusing: not in use
# Beamline.harmonic_rejection: flat mirror, Pt stripe, pitch = 7.0 mrad relative to beam
# Beamline.software: Bluesky 1.10.0, Ophyd 1.7.0, DataBroker 2.0.0b13, Python 3.10.8, 2023-1.0-py310-tiled
# Detector.I0: 10 cm N2
# Detector.I1: 25 cm N2
# Detector.I2: 25 cm N2
# Element.symbol: Cu
# Element.edge: K
# Element.reference: Cu
# Element.reference_material: Cu foil
# Facility.name: NSLS-II
# Facility.energy: 3.0
# Facility.current: 400.2
# Facility.mode: top-off
# Facility.GUP: 301027
# Facility.SAF: 310583
# Facility.cycle: 2023-2
# Mono.name: Si(111)
# Mono.d_spacing: 3.1351860
# Mono.encoder_resolution: 0.0000050 deg/ct
# Mono.angle_offset: 16.0754326 deg
# Mono.scan_mode: pseudo channel cut
# Mono.scan_type: step
# Mono.direction: forward in energy
# Sample.name: Cu foil
# Sample.prep: reference foil
# Sample.x: 109.138 mm
# Sample.y: 153.150 mm
# Sample.SDD_position: 205.000 mm
# Scan.experimenters: Bruce Ravel
# Scan.edge_energy: 8978.9
# Scan.start_time: 2023-05-28T16:00:18
# Scan.end_time: 2023-05-28T16:08:28
# Scan.transient_id: 78819
# Scan.uid: 7a9331ae-bb98-4301-bb17-874292cebbc0
# Scan.plot_hint: ln(It/Ir)  --  ln($6/$7)
# Column.1: energy eV
# Column.2: requested_energy eV
# Column.3: measurement_time seconds
# Column.4: xmu 
# Column.5: I0 nA
# Column.6: It nA
# Column.7: Ir nA
# ///////////
# standard reference foil
# -----------
# energy  requested_energy  measurement_time  xmu  I0  It  Ir
  8778.913  8778.900  0.500  0.809505  123.420962  168.124028  74.828379
  8788.966  8788.900  0.500  0.806764  123.226666  168.059657  75.004999
  8798.947  8798.900  0.500  0.804066  123.006527  168.020728  75.190242
  8808.907  8808.900  0.500  0.801299  122.823360  167.971343  75.376449
  8818.934  8818.900  0.500  0.798642  122.647973  167.930795  75.558693
  8828.967  8828.900  0.500  0.795968  122.460157  167.887461  75.741495
  8838.917  8838.900  0.500  0.793410  122.281528  167.850481  75.918776
  8848.909  8848.900  0.500  0.790711  122.097122  167.785792  76.094614
  8858.966  8858.900  0.500  0.788142  121.903834  167.740581  76.269805
  8868.907  8868.900  0.500  0.785610  121.701571  167.635028  76.414983
  8878.915  8878.900  0.500  0.783088  121.505334  167.578130  76.581959
  8888.926  8888.900  0.500  0.780627  121.315549  167.516004  76.742197
  8898.964  8898.900  0.500  0.778149  121.120821  167.450294  76.902411
  8908.960  8908.900  0.500  0.775913  120.853376  167.263167  76.988446
  8918.911  8918.900  0.500  0.773691  119.752521  165.938355  76.548545
  8928.905  8928.900  0.500  0.771761  120.587942  167.297605  77.324694
  8938.911  8938.900  0.500  0.770060  120.439037  167.278502  77.447447
  8948.917  8948.900  0.500  0.769031  120.244677  167.191560  77.486930
  8950.886  8950.900  0.500  0.768956  120.203504  167.160710  77.478436
  8952.883  8952.900  0.500  0.768894  119.848510  166.740061  77.288246
  8954.877  8954.900  0.500  0.768979  120.096139  167.138057  77.466167
  8956.883  8956.900  0.500  0.769142  120.063303  167.104225  77.437863
  8958.880  8958.900  0.500  0.769366  120.029179  167.069473  77.404413
  8960.877  8960.900  0.500  0.769786  120.000032  167.082192  77.377829
  8962.879  8962.900  0.500  0.770314  119.953417  167.079624  77.335782
  8964.889  8964.900  0.500  0.771179  119.871340  166.960732  77.213950
  8966.885  8966.900  0.500  0.772374  119.752381  166.846862  77.069125
  8968.883  8968.900  0.500  0.774115  119.826283  167.012805  77.011560
  8969.174  8969.200  0.500  0.774454  119.816705  166.967070  76.964366
  8969.468  8969.500  0.500  0.774797  119.798548  166.965724  76.937385
  8969.773  8969.800  0.500  0.775138  119.801002  166.965785  76.911139
  8970.067  8970.100  0.500  0.775544  119.785242  166.951229  76.873235
  8970.365  8970.400  0.500  0.775922  119.776046  166.976903  76.855984
  8970.670  8970.700  0.500  0.776277  119.761804  166.963215  76.822415
  8970.968  8971.000  0.500  0.776774  119.751354  166.953028  76.779559
  8971.269  8971.300  0.500  0.777240  119.751224  166.940340  76.737931
  8971.571  8971.600  0.500  0.777777  119.737603  166.942028  76.697524
  8971.869  8971.900  0.500  0.778297  119.728505  166.924207  76.649467
  8972.177  8972.200  0.500  0.778900  119.718210  166.907620  76.595675
  8972.472  8972.500  0.500  0.779537  119.711829  166.893066  76.540202
  8972.780  8972.800  0.500  0.780272  119.698493  166.905567  76.489678
  8973.075  8973.100  0.500  0.780920  119.690905  166.899595  76.437415
  8973.387  8973.400  0.500  0.781722  119.686243  166.894923  76.374009
  8973.688  8973.700  0.500  0.782486  119.684438  166.886748  76.311941
  8973.983  8974.000  0.500  0.783463  119.677049  166.872755  76.231055
  8974.281  8974.300  0.500  0.784417  119.670590  166.847790  76.146969
  8974.600  8974.600  0.500  0.785548  119.662664  166.861241  76.066982
  8974.892  8974.900  0.500  0.786666  119.658898  166.846547  75.975331
  8975.197  8975.200  0.500  0.787939  119.648812  166.849990  75.880204
  8975.492  8975.500  0.500  0.789353  119.644505  166.869976  75.782048
  8975.793  8975.800  0.500  0.790974  119.626881  166.846293  75.648578
  8976.088  8976.100  0.500  0.792655  119.622297  166.832574  75.515301
  8976.390  8976.400  0.500  0.794483  119.610940  166.810005  75.367236
  8976.685  8976.700  0.500  0.796521  119.602053  166.806892  75.212373
  8976.990  8977.000  0.500  0.798883  119.596758  166.799216  75.031460
  8977.288  8977.300  0.500  0.801475  119.584404  166.793144  74.834495
  8977.580  8977.600  0.500  0.804502  119.576834  166.821126  74.620853
  8977.889  8977.900  0.500  0.808217  119.564404  166.791171  74.330801
  8978.177  8978.200  0.500  0.812304  119.560358  166.774271  74.020122
  8978.485  8978.500  0.500  0.817531  119.548416  166.764717  73.630000
  8978.791  8978.800  0.500  0.823760  119.884067  167.251722  73.386476
  8979.086  8979.100  0.500  0.831190  119.905610  167.300225  72.864399
  8979.398  8979.400  0.500  0.841120  119.908153  167.316501  72.151460
  8979.697  8979.700  0.500  0.853509  119.910483  167.306935  71.259010
  8979.999  8980.000  0.500  0.869552  119.906085  167.333767  70.136163
  8980.297  8980.300  0.500  0.891474  119.891072  167.310719  68.605882
  8980.603  8980.600  0.500  0.923534  119.881576  167.292507  66.434087
  8980.895  8980.900  0.500  0.965744  119.877562  167.298779  63.690649
  8981.193  8981.200  0.500  1.023447  119.866631  167.292773  60.117343
  8981.495  8981.500  0.500  1.095086  119.841386  167.262972  55.951290
  8981.794  8981.800  0.500  1.175128  119.770654  167.171435  51.619101
  8982.096  8982.100  0.500  1.257539  119.661340  167.033740  47.496515
  8982.385  8982.400  0.500  1.325566  119.569186  166.916268  44.341752
  8982.683  8982.700  0.500  1.378404  119.512267  166.855613  42.044363
  8982.996  8983.000  0.500  1.415711  119.495920  166.811538  40.494003
  8983.291  8983.300  0.500  1.438604  119.542933  166.893731  39.597009
  8983.604  8983.600  0.500  1.450845  119.643920  167.043579  39.150381
  8983.903  8983.900  0.500  1.454336  119.703501  167.139073  39.036234
  8984.198  8984.200  0.500  1.451374  119.716924  167.176566  39.160797
  8984.500  8984.500  0.500  1.443619  119.715455  167.169428  39.464003
  8984.799  8984.800  0.500  1.433401  119.709261  167.165757  39.868416
  8985.105  8985.100  0.500  1.422998  119.702370  167.160181  40.284007
  8985.401  8985.400  0.500  1.415689  119.690719  167.167754  40.581355
  8985.693  8985.700  0.500  1.412732  119.684473  167.131503  40.692718
  8985.995  8986.000  0.500  1.415594  119.674842  167.121042  40.573884
  8986.294  8986.300  0.500  1.424299  119.663823  167.115540  40.220887
  8986.596  8986.600  0.500  1.438091  119.654763  167.116205  39.670136
  8986.889  8986.900  0.500  1.454329  119.646925  167.088781  39.024758
  8987.195  8987.200  0.500  1.472403  119.639995  167.108787  38.330356
  8987.497  8987.500  0.500  1.491050  119.632197  167.108853  37.622231
  8987.803  8987.800  0.500  1.508476  119.624184  167.090065  36.968172
  8988.106  8988.100  0.500  1.524919  119.609609  167.099487  36.367303
  8988.405  8988.400  0.500  1.540512  119.604484  167.079056  35.800242
  8988.697  8988.700  0.500  1.556124  119.596797  167.059853  35.241623
  8989.010  8989.000  0.500  1.574070  119.579531  167.049918  34.612765
  8989.302  8989.300  0.500  1.592594  119.569264  167.054332  33.978405
  8989.608  8989.600  0.500  1.613543  119.557099  167.043547  33.271859
  8989.894  8989.900  0.500  1.635466  119.549430  167.030395  32.547790
  8990.197  8990.200  0.500  1.659810  119.542754  167.020647  31.763167
  8990.492  8990.500  0.500  1.686248  119.526099  167.016884  30.933734
  8990.785  8990.800  0.500  1.714090  119.519311  167.017319  30.084434
  8991.101  8991.100  0.500  1.746163  119.498692  166.992246  29.130457
  8991.397  8991.400  0.500  1.778998  119.484296  166.986873  28.188577
  8991.697  8991.700  0.500  1.814377  119.467448  166.983794  27.208236
  8992.003  8992.000  0.500  1.852453  119.448677  166.921333  26.181928
  8992.292  8992.300  0.500  1.890575  119.428710  166.890057  25.197885
  8992.605  8992.600  0.500  1.932262  119.398052  166.884182  24.168215
  8992.901  8992.900  0.500  1.972760  119.356988  166.841754  23.203101
  8993.211  8993.200  0.500  2.012745  119.289867  166.739241  22.279924
  8993.497  8993.500  0.500  2.049163  119.195730  166.596667  21.464755
  8993.800  8993.800  0.500  2.084844  118.919178  166.234149  20.667320
  8994.092  8994.100  0.500  2.117238  118.233591  165.263411  19.891696
  8994.392  8994.400  0.500  2.148211  117.368013  164.067621  19.145502
  8994.695  8994.700  0.500  2.177084  116.995149  163.558010  18.542843
  8994.994  8995.000  0.500  2.202551  117.311405  164.003055  18.125752
  8995.304  8995.300  0.500  2.223346  117.968013  164.926821  17.852715
  8995.604  8995.600  0.500  2.238451  118.623802  165.849830  17.683500
  8995.893  8995.900  0.500  2.247457  119.120991  166.535174  17.597368
  8996.193  8996.200  0.500  2.250831  119.341568  166.841095  17.570307
  8996.496  8996.500  0.500  2.248744  119.392240  166.913364  17.614653
  8996.806  8996.800  0.500  2.241892  119.386324  166.932717  17.737821
  8997.106  8997.100  0.500  2.232225  119.382717  166.937762  17.910653
  8997.402  8997.400  0.500  2.220119  119.375615  166.956931  18.130894
  8997.698  8997.700  0.500  2.207161  119.362460  166.922050  18.363517
  8997.998  8998.000  0.500  2.192964  119.340420  166.872857  18.620602
  8998.305  8998.300  0.500  2.177856  119.329306  166.890836  18.906081
  8998.594  8998.600  0.500  2.163721  119.318907  166.890668  19.175203
  8998.887  8998.900  0.500  2.149860  119.299339  166.867119  19.440104
  8999.194  8999.200  0.500  2.136212  119.288867  166.858353  19.706203
  8999.501  8999.500  0.500  2.123862  119.277267  166.867663  19.952197
  8999.797  8999.800  0.500  2.113418  119.251756  166.824694  20.156470
  9000.108  9000.100  0.500  2.104939  119.242544  166.806024  20.325834
  9000.394  9000.400  0.500  2.099180  119.223433  166.790398  20.441318
  9000.707  9000.700  0.500  2.095218  119.206371  166.742680  20.516589
  9001.000  9001.000  0.500  2.094203  119.182071  166.717781  20.534359
  9001.304  9001.300  0.500  2.095839  119.158788  166.703910  20.499095
  9001.600  9001.600  0.500  2.100319  119.127873  166.671471  20.403491
  9001.890  9001.900  0.500  2.107559  119.092032  166.620044  20.250040
  9002.201  9002.200  0.500  2.118015  119.043861  166.530322  20.028620
  9002.490  9002.500  0.500  2.130888  118.954338  166.418591  19.759181
  9002.794  9002.800  0.500  2.146614  118.762750  166.146927  19.419131
  9003.087  9003.100  0.500  2.163836  118.312085  165.534630  19.017206
  9003.384  9003.400  0.500  2.183019  117.517696  164.444405  18.533019
  9003.698  9003.700  0.500  2.203192  116.869665  163.536164  18.062584
  9003.886  9003.900  0.500  2.215148  116.778426  163.411389  17.834296
  9004.878  9004.890  0.500  2.261467  118.645841  166.063595  17.303417
  9006.156  9005.890  0.500  2.262202  119.169787  166.810269  17.368451
  9006.882  9006.910  0.500  2.230166  119.126093  166.751341  17.927528
  9008.056  9007.960  0.500  2.175317  119.080421  166.710771  18.933702
  9009.024  9009.020  0.500  2.136920  119.002085  166.636241  19.666034
  9010.111  9010.100  0.500  2.106053  118.814754  166.368830  20.249979
  9011.205  9011.200  0.500  2.076358  116.937646  163.758731  20.533067
  9012.328  9012.320  0.500  2.048692  118.072662  165.379905  21.318032
  9013.461  9013.460  0.500  2.033904  119.037323  166.758088  21.815926
  9014.619  9014.610  0.500  2.033615  119.001480  166.729508  21.818496
  9015.795  9015.790  0.500  2.040794  118.959441  166.668303  21.654456
  9016.982  9016.980  0.500  2.052555  118.921065  166.652145  21.399195
  9018.211  9018.200  0.500  2.070933  118.868437  166.610396  21.004252
  9019.440  9019.430  0.500  2.095820  118.766286  166.471656  20.470916
  9020.687  9020.680  0.500  2.126162  117.457992  164.649175  19.641707
  9021.959  9021.950  0.500  2.156578  117.712005  165.029615  19.097304
  9023.232  9023.240  0.500  2.184487  118.849004  166.659374  18.755091
  9024.547  9024.550  0.500  2.212812  118.823595  166.662945  18.231695
  9025.883  9025.880  0.500  2.238520  118.795647  166.641541  17.766689
  9027.237  9027.230  0.500  2.256466  118.775768  166.625965  17.449051
  9028.610  9028.600  0.500  2.257514  118.740111  166.597970  17.427849
  9029.983  9029.980  0.500  2.238844  118.709987  166.591001  17.755539
  9031.387  9031.390  0.500  2.206690  118.677756  166.559609  18.332280
  9032.814  9032.810  0.500  2.171199  118.649530  166.546532  18.993094
  9034.254  9034.250  0.500  2.136853  118.620692  166.535117  19.655412
  9035.710  9035.710  0.500  2.110897  118.592280  166.526117  20.171195
  9037.180  9037.190  0.500  2.095361  118.554249  166.492352  20.482859
  9038.692  9038.690  0.500  2.088080  118.509975  166.487974  20.631997
  9040.205  9040.210  0.500  2.089019  118.470104  166.451929  20.608169
  9041.761  9041.750  0.500  2.097118  117.408378  165.006527  20.264422
  9043.300  9043.310  0.500  2.107642  118.026448  165.892210  20.159908
  9044.882  9044.880  0.500  2.113357  118.310833  166.314871  20.096096
  9046.475  9046.480  0.500  2.111235  118.307722  166.358671  20.144096
  9048.100  9048.090  0.500  2.107236  118.274214  166.347556  20.223452
  9049.733  9049.730  0.500  2.110571  118.252838  166.325639  20.153463
  9051.373  9051.380  0.500  2.121431  118.209782  166.291382  19.931676
  9053.049  9053.050  0.500  2.132800  118.178556  166.307228  19.708247
  9054.733  9054.740  0.500  2.136771  118.139286  166.268644  19.625582
  9056.443  9056.450  0.500  2.136303  118.108038  166.258163  19.633529
  9058.174  9058.180  0.500  2.139774  118.079155  166.232641  19.562501
  9059.938  9059.930  0.500  2.151396  118.043265  166.224573  19.335525
  9061.692  9061.690  0.500  2.167165  117.989466  166.179398  19.027827
  9063.482  9063.480  0.500  2.180783  117.033482  164.871865  18.622779
  9065.272  9065.280  0.500  2.190167  117.697179  165.837826  18.556928
  9067.120  9067.110  0.500  2.199308  117.852639  166.067292  18.413525
  9068.955  9068.950  0.500  2.210486  117.831128  166.083547  18.210628
  9070.801  9070.810  0.500  2.225661  117.801473  166.074366  17.935377
  9072.694  9072.690  0.500  2.240561  117.768055  166.042591  17.666736
  9074.595  9074.590  0.500  2.247781  117.729024  166.040718  17.539445
  9076.518  9076.510  0.500  2.242092  117.686742  166.016748  17.636965
  9078.445  9078.450  0.500  2.224009  117.642760  165.988434  17.955719
  9080.419  9080.410  0.500  2.197339  117.550475  165.879562  18.428946
  9082.384  9082.380  0.500  2.170354  116.394233  164.291477  18.751767
  9084.392  9084.380  0.500  2.146671  117.457504  165.842854  19.382473
  9086.397  9086.390  0.500  2.125788  117.451499  165.845846  19.791864
  9088.414  9088.420  0.500  2.108844  117.410409  165.833477  20.128560
  9090.486  9090.480  0.500  2.099855  117.376435  165.844112  20.311612
  9092.561  9092.550  0.500  2.091213  117.341049  165.809755  20.483674
  9094.638  9094.640  0.500  2.073992  117.300620  165.790553  20.837055
  9096.759  9096.750  0.500  2.051765  117.262271  165.790623  21.305396
  9098.895  9098.880  0.500  2.032457  117.226099  165.789339  21.720603
  9101.028  9101.020  0.500  2.023979  117.359151  166.018907  21.935848
  9103.212  9103.190  0.500  2.028542  117.383559  166.075837  21.843491
  9105.394  9105.380  0.500  2.043118  116.750752  165.203786  21.414366
  9107.584  9107.580  0.500  2.063951  117.353427  166.093109  21.085761
  9109.818  9109.800  0.500  2.085576  117.341565  166.131065  20.639382
  9112.064  9112.050  0.500  2.102756  117.301520  166.118131  20.286244
  9114.318  9114.310  0.500  2.114555  117.263180  166.097942  20.045857
  9116.609  9116.590  0.500  2.119081  117.213123  166.082757  19.953505
  9118.891  9118.890  0.500  2.118360  117.165243  166.054073  19.964449
  9121.227  9121.210  0.500  2.117597  117.115631  166.026544  19.976387
  9123.561  9123.550  0.500  2.124644  117.064321  165.986261  19.831283
  9125.904  9125.900  0.500  2.145136  117.010080  165.947104  19.424452
  9128.291  9128.280  0.500  2.178880  116.953141  165.902419  18.774884
  9130.675  9130.670  0.500  2.212491  116.895180  165.852090  18.148812
  9133.104  9133.090  0.500  2.231802  116.832866  165.814246  17.797641
  9135.527  9135.520  0.500  2.233514  116.776295  165.769726  17.762434
  9137.970  9137.970  0.500  2.225143  116.704272  165.725139  17.906929
  9140.457  9140.450  0.500  2.211973  116.612654  165.647801  18.135845
  9142.959  9142.940  0.500  2.194122  116.378453  165.360758  18.430515
  9145.460  9145.450  0.500  2.168823  113.735854  161.652812  18.478862
  9147.987  9147.970  0.500  2.137460  116.607889  165.760391  19.552118
  9150.519  9150.520  0.500  2.101545  116.507048  165.684914  20.257855
  9153.110  9153.090  0.500  2.063005  116.386346  165.560764  21.038066
  9155.671  9155.670  0.500  2.026092  116.171048  165.292279  21.793754
  9158.291  9158.280  0.500  1.993796  112.583205  160.229609  21.819664
  9160.923  9160.900  0.500  1.975314  116.358476  165.658309  22.979741
  9163.571  9163.550  0.500  1.975583  116.235065  165.508961  22.952848
  9166.220  9166.210  0.500  1.993424  116.047344  165.295777  22.517937
  9168.897  9168.890  0.500  2.022408  112.430308  160.173706  21.196811
  9171.619  9171.590  0.500  2.053502  116.188957  165.574865  21.240751
  9174.327  9174.310  0.500  2.076211  116.092622  165.487191  20.752832
  9177.071  9177.050  0.500  2.088272  115.979946  165.350408  20.487085
  9179.819  9179.800  0.500  2.091614  115.809132  165.155111  20.394611
  9182.606  9182.580  0.500  2.088232  112.081518  159.908733  19.813645
  9185.390  9185.370  0.500  2.082597  115.918930  165.427314  20.613275
  9188.202  9188.190  0.500  2.078894  115.812098  165.314576  20.675647
  9191.045  9191.020  0.500  2.076699  115.706540  165.210291  20.708007
  9193.882  9193.870  0.500  2.072844  115.630792  165.159544  20.781605
  9196.772  9196.750  0.500  2.066128  115.539612  165.067432  20.909976
  9199.645  9199.640  0.500  2.061846  115.452996  164.994355  20.990393
  9202.561  9202.550  0.500  2.068156  115.373625  164.930536  20.850297
  9205.486  9205.470  0.500  2.086152  115.300317  164.883001  20.472523
  9208.446  9208.420  0.500  2.107409  115.217978  164.831542  20.035694
  9211.403  9211.390  0.500  2.118760  115.157667  164.775006  19.802747
  9214.393  9214.370  0.500  2.119769  115.092717  164.741097  19.778709
  9217.384  9217.380  0.500  2.115575  115.023095  164.691556  19.855854
  9220.417  9220.400  0.500  2.106814  114.948652  164.632516  20.023408
  9223.471  9223.450  0.500  2.092377  114.874641  164.571632  20.307060
  9226.531  9226.510  0.500  2.071950  114.802756  164.520211  20.719662
  9229.603  9229.590  0.500  2.048357  114.725619  164.490367  21.210479
  9232.707  9232.690  0.500  2.025446  114.652986  164.404218  21.690674
  9235.825  9235.810  0.500  2.006007  114.583199  164.358829  22.110336
  9238.977  9238.950  0.500  1.992167  114.515483  164.317797  22.412875
  9242.106  9242.100  0.500  1.986319  114.446163  164.271602  22.537983
  9245.311  9245.280  0.500  1.987315  114.371152  164.219157  22.508359
  9248.493  9248.470  0.500  1.990352  114.309374  164.187586  22.435798
  9251.710  9251.690  0.500  1.991284  114.237422  164.128050  22.406771
  9254.936  9254.920  0.500  1.991419  114.155632  164.076123  22.396651
  9258.187  9258.170  0.500  1.992484  114.073525  164.000218  22.362464
  9261.474  9261.450  0.500  1.994114  113.989991  163.957392  22.320211
  9264.759  9264.740  0.500  1.997116  113.934777  163.925085  22.248916
  9268.080  9268.050  0.500  2.001864  113.852550  163.833962  22.131225
  9271.385  9271.370  0.500  2.006704  113.776410  163.780956  22.017248
  9274.744  9274.720  0.500  2.010777  113.663293  163.690386  21.915628
  9278.113  9278.090  0.500  2.013395  113.654288  163.712903  21.861339
  9281.496  9281.470  0.500  2.015203  113.581182  163.670484  21.816193
  9284.896  9284.880  0.500  2.016433  113.483081  163.593774  21.779163
  9288.314  9288.300  0.500  2.017879  113.399033  163.540031  21.740550
  9291.772  9291.750  0.500  2.018907  113.254079  163.379608  21.696899
  9295.232  9295.210  0.500  2.019764  113.257391  163.421881  21.683914
  9298.717  9298.690  0.500  2.020035  112.932718  163.011787  21.623642
  9302.201  9302.190  0.500  2.016988  113.162282  163.411503  21.742826
  9305.736  9305.710  0.500  2.009849  113.017390  163.260078  21.878308
  9309.263  9309.250  0.500  2.000807  113.027424  163.311101  22.083924
  9312.822  9312.800  0.500  1.991127  112.908929  163.209447  22.284866
  9316.411  9316.380  0.500  1.981061  112.835818  163.161043  22.503622
  9319.995  9319.980  0.500  1.972035  112.725079  163.041105  22.690979
  9323.615  9323.590  0.500  1.965938  112.461559  162.739929  22.787582
  9327.238  9327.220  0.500  1.963080  112.587082  162.986906  22.887477
  9330.902  9330.880  0.500  1.961184  112.506526  162.915254  22.920827
  9334.576  9334.550  0.500  1.957420  112.412079  162.835288  22.995979
  9338.246  9338.240  0.500  1.950586  112.324812  162.780534  23.145891
  9341.990  9341.950  0.500  1.941725  112.210308  162.687758  23.338586
  9345.669  9345.680  0.500  1.934507  112.123483  162.604412  23.495611
  9349.412  9349.420  0.500  1.932545  112.024905  162.498357  23.526398
  9353.192  9353.190  0.500  1.933653  111.944900  162.472930  23.496668
  9356.989  9356.980  0.500  1.933324  111.847467  162.374855  23.490211
  9360.783  9360.780  0.500  1.933023  111.772166  162.322673  23.489730
  9364.625  9364.610  0.500  1.933658  111.675249  162.229536  23.461356
  9368.466  9368.450  0.500  1.934198  111.595686  162.168506  23.439869
  9372.334  9372.310  0.500  1.934708  111.494259  162.074466  23.414316
  9376.208  9376.190  0.500  1.935277  111.407509  162.006132  23.391126
  9380.113  9380.090  0.500  1.935589  111.301698  161.907544  23.369604
  9384.028  9384.010  0.500  1.935908  111.219869  161.853095  23.354292
  9387.958  9387.950  0.500  1.935710  111.120882  161.774836  23.347638
  9391.926  9391.910  0.500  1.934832  111.031185  161.704912  23.358039
  9395.886  9395.880  0.500  1.933723  110.936970  161.631254  23.373312
  9399.898  9399.880  0.500  1.932174  110.846409  161.568712  23.400481
  9403.911  9403.890  0.500  1.929115  110.756724  161.511677  23.463888
  9407.942  9407.930  0.500  1.924421  110.669821  161.446678  23.564802
  9412.003  9411.980  0.500  1.918398  110.569344  161.366559  23.695394
  9416.064  9416.050  0.500  1.911543  110.485099  161.300686  23.848637
  9420.156  9420.140  0.500  1.904919  110.362295  161.178142  23.988901
  9424.266  9424.250  0.500  1.900023  110.281558  161.124719  24.098639
  9428.407  9428.380  0.500  1.896778  110.181169  161.032548  24.163144
  9432.541  9432.530  0.500  1.894494  110.094355  160.967993  24.208690
  9436.712  9436.690  0.500  1.892284  109.670455  160.424635  24.180357
  9440.895  9440.880  0.500  1.889560  109.879058  160.781947  24.300321
  9445.090  9445.080  0.500  1.886273  109.783367  160.717179  24.370484
  9449.327  9449.310  0.500  1.882053  109.685074  160.637488  24.461421
  9453.571  9453.550  0.500  1.877264  109.587016  160.551259  24.565642
  9457.824  9457.810  0.500  1.872729  109.490259  160.469772  24.664781
  9462.119  9462.090  0.500  1.869868  109.357929  160.343077  24.715917
  9466.406  9466.390  0.500  1.867401  109.276083  160.285228  24.768022
  9470.721  9470.710  0.500  1.864550  109.167216  160.174735  24.821631
  9475.070  9475.050  0.500  1.861871  109.053664  160.071970  24.872233
  9479.432  9479.410  0.500  1.859869  108.948818  159.984303  24.908436
  9483.813  9483.790  0.500  1.858487  108.844181  159.895405  24.929017
  9488.198  9488.180  0.500  1.857700  108.732600  159.793878  24.932817
  9492.618  9492.600  0.500  1.857287  108.625289  159.698667  24.928254
  9497.059  9497.030  0.500  1.856831  108.518609  159.601117  24.924381
  9501.503  9501.480  0.500  1.856356  108.396753  159.502032  24.920748
  9505.979  9505.950  0.500  1.855757  108.290157  159.402733  24.920159
  9510.471  9510.440  0.500  1.854583  108.176641  159.294316  24.932458
  9514.975  9514.950  0.500  1.852455  108.069417  159.191363  24.969435
  9519.484  9519.480  0.500  1.849053  107.950841  159.082077  25.037304
  9524.048  9524.030  0.500  1.844584  107.857839  159.018113  25.139334
  9528.620  9528.600  0.500  1.839417  107.741364  158.904484  25.251523
  9533.189  9533.180  0.500  1.834672  107.613252  158.777717  25.351369
  9537.794  9537.790  0.500  1.830715  107.541036  158.740020  25.445857
  9542.423  9542.410  0.500  1.827240  107.417830  158.621772  25.515409
  9547.080  9547.060  0.500  1.823954  107.296825  158.506741  25.580834
  9551.730  9551.720  0.500  1.821021  107.189497  158.404419  25.639410
  9556.413  9556.400  0.500  1.818096  107.084990  158.314076  25.699844
  9561.120  9561.100  0.500  1.815280  106.943534  158.174189  25.749540
  9565.823  9565.820  0.500  1.812365  106.849764  158.103961  25.813249
  9570.575  9570.560  0.500  1.809218  106.734571  158.024830  25.881643
  9575.320  9575.310  0.500  1.806275  106.616146  157.906838  25.938549
  9580.097  9580.090  0.500  1.803220  106.491097  157.795471  25.999554
  9584.907  9584.890  0.500  1.799973  106.411043  157.733292  26.073842
  9589.722  9589.700  0.500  1.796764  106.288530  157.602587  26.135982
  9594.542  9594.530  0.500  1.794138  106.176968  157.531319  26.192839
  9599.403  9599.390  0.500  1.791653  106.058056  157.413248  26.238347
  9604.272  9604.260  0.500  1.789308  105.920291  157.280231  26.277704
  9609.171  9609.150  0.500  1.787308  105.832121  157.216928  26.319720
  9614.075  9614.060  0.500  1.785032  105.703317  157.080931  26.356883
  9619.007  9618.990  0.500  1.782932  105.516211  156.877195  26.378029
  9623.954  9623.930  0.500  1.780852  105.459734  156.833722  26.425619
  9628.933  9628.900  0.500  1.778780  105.347622  156.760903  26.468141
  9633.905  9633.890  0.500  1.776758  105.184294  156.562756  26.488179
  9638.903  9638.890  0.500  1.773984  105.086301  156.504988  26.551964
  9643.930  9643.920  0.500  1.771494  104.966659  156.390056  26.598621
  9648.975  9648.960  0.500  1.768657  104.751029  156.139470  26.631432
  9654.033  9654.020  0.500  1.765788  104.743403  156.191365  26.716840
  9659.129  9659.100  0.500  1.762825  104.897251  156.482172  26.846001
  9664.222  9664.200  0.500  1.760011  104.819315  156.449682  26.916064
  9669.341  9669.320  0.500  1.757079  104.696813  156.316004  26.972041
  9674.470  9674.460  0.500  1.754206  104.582888  156.198254  27.029252
  9679.644  9679.620  0.500  1.750899  104.469196  156.119315  27.105088
  9684.828  9684.800  0.500  1.747904  104.349594  155.989299  27.163749
  9690.018  9689.990  0.500  1.744857  104.229105  155.882216  27.227930
  9695.234  9695.210  0.500  1.741620  104.103242  155.755461  27.294000
  9700.456  9700.440  0.500  1.738728  103.965838  155.616262  27.348589
  9705.712  9705.690  0.500  1.735922  103.813431  155.463945  27.398603
  9710.994  9710.960  0.500  1.733005  102.456570  153.500793  27.131642
  9716.269  9716.250  0.500  1.729981  103.581445  155.265384  27.526650
  9721.580  9721.560  0.500  1.727032  103.480745  155.172509  27.591437
  9726.916  9726.890  0.500  1.724181  103.326602  155.015654  27.642245
  9732.275  9732.240  0.500  1.721507  103.198937  154.893748  27.694456
  9737.632  9737.610  0.500  1.718780  103.107213  154.808314  27.754772
  9743.015  9742.990  0.500  1.716148  102.956209  154.657460  27.800786
  9748.425  9748.400  0.500  1.713649  102.825544  154.520014  27.845586
  9753.853  9753.820  0.500  1.711330  102.660649  154.355607  27.880533
  9759.304  9759.270  0.500  1.708868  102.542516  154.247535  27.929690
  9764.753  9764.730  0.500  1.706264  102.408282  154.105823  27.976809
  9770.233  9770.210  0.500  1.703561  102.221899  153.891432  28.013502
  9775.769  9775.710  0.500  1.700906  101.912208  153.484570  28.013703
  9781.266  9781.230  0.500  1.698082  101.976585  153.638503  28.121103
  9786.790  9786.770  0.500  1.695323  101.882739  153.594509  28.190721
  9792.382  9792.320  0.500  1.692609  100.760259  151.976345  27.969533
  9797.927  9797.900  0.500  1.689911  101.596204  153.296790  28.288773
  9803.536  9803.500  0.500  1.686999  99.902670  150.809804  27.910988
  9809.140  9809.110  0.500  1.684219  101.350820  153.062675  28.406788
  9814.788  9814.750  0.500  1.681555  101.197860  152.916277  28.455333
  9820.438  9820.400  0.500  1.678560  100.908216  152.529826  28.468566
  9826.136  9826.070  0.500  1.675468  100.941412  152.633540  28.576128
  9831.825  9831.760  0.500  1.672454  100.738099  152.395683  28.617728
