# XDI/1.0 BlueSky/1.10.0 BMM/2023-1.0-py310-tiled
# Beamline.name: BMM (06BM) -- Beamline for Materials Measurement (NIST)
# Beamline.xray_source: NSLS-II three-pole wiggler
# Beamline.collimation: paraboloid mirror, 5 nm Rh on 30 nm Pt
# Beamline.focusing: not in use
# Beamline.harmonic_rejection: flat mirror, Pt stripe, pitch = 7.0 mrad relative to beam
# Beamline.software: Bluesky 1.10.0, Ophyd 1.7.0, DataBroker 2.0.0b13, Python 3.10.8, 2023-1.0-py310-tiled
# Detector.I0: 10 cm N2
# Detector.I1: 25 cm N2
# Detector.I2: 25 cm N2
# Element.symbol: Au
# Element.edge: L3
# Element.reference: Au
# Element.reference_material: Au foil
# Facility.name: NSLS-II
# Facility.energy: 3.0
# Facility.current: 400.5
# Facility.mode: top-off
# Facility.GUP: 301027
# Facility.SAF: 310583
# Facility.cycle: 2023-2
# Mono.name: Si(111)
# Mono.d_spacing: 3.1351860
# Mono.encoder_resolution: 0.0000050 deg/ct
# Mono.angle_offset: 16.0754326 deg
# Mono.scan_mode: pseudo channel cut
# Mono.scan_type: step
# Mono.direction: forward in energy
# Sample.name: Au(C2H3O2)3, gold scetate
# Sample.prep: powder on tape
# Sample.x: 145.711 mm
# Sample.y: 114.376 mm
# Sample.SDD_position: 205.000 mm
# Scan.experimenters: Bruce Ravel
# Scan.edge_energy: 11918.7
# Scan.start_time: 2023-06-27T18:23:55
# Scan.end_time: 2023-06-27T18:31:45
# Scan.transient_id: 85222
# Scan.uid: f8778dea-1743-4ebf-81bb-6d42f9572a59
# Scan.plot_hint: ln(I0/It)  --  ln($5/$6)
# Column.1: energy eV
# Column.2: requested_energy eV
# Column.3: measurement_time seconds
# Column.4: xmu 
# Column.5: I0 nA
# Column.6: It nA
# Column.7: Ir nA
# ///////////
# sample courtesy Martin Stennett, University of Sheffield
# -----------
# energy  requested_energy  measurement_time  xmu  I0  It  Ir
  11718.684  11718.700  0.500  0.523983  64.655016  38.285942  24.370635
  11728.729  11728.700  0.500  0.521145  64.517008  38.312807  24.411178
  11738.750  11738.700  0.500  0.518360  64.369644  38.331874  24.447993
  11748.734  11748.700  0.500  0.515654  64.153100  38.306442  24.462243
  11758.735  11758.700  0.500  0.512835  63.917945  38.273779  24.468248
  11768.735  11768.700  0.500  0.510208  63.995762  38.421168  24.584465
  11778.770  11778.700  0.500  0.507484  63.664717  38.326676  24.550059
  11788.751  11788.700  0.500  0.504872  63.736295  38.470135  24.669407
  11798.773  11798.700  0.500  0.502340  63.584614  38.475894  24.702876
  11808.733  11808.700  0.500  0.499687  63.409933  38.472095  24.720808
  11818.789  11818.700  0.500  0.497170  63.279685  38.489838  24.759701
  11828.705  11828.700  0.500  0.494877  63.122618  38.482446  24.777588
  11838.729  11838.700  0.500  0.492584  63.026915  38.512324  24.822426
  11848.733  11848.700  0.500  0.490578  62.718842  38.401022  24.770575
  11858.736  11858.700  0.500  0.488769  62.670518  38.440895  24.814997
  11868.726  11868.700  0.500  0.487722  62.639834  38.462348  24.848713
  11878.721  11878.700  0.500  0.487436  62.522106  38.401020  24.812820
  11888.732  11888.700  0.500  0.488943  62.331608  38.226387  24.696955
  11890.676  11890.700  0.500  0.489647  62.318667  38.191522  24.673902
  11892.670  11892.700  0.500  0.490594  62.299831  38.143856  24.634000
  11894.665  11894.700  0.500  0.491686  62.267422  38.082411  24.590860
  11896.666  11896.700  0.500  0.493184  62.241823  38.009757  24.537358
  11898.656  11898.700  0.500  0.494909  62.201179  37.919466  24.462937
  11900.678  11900.700  0.500  0.497395  62.100092  37.763858  24.353658
  11902.669  11902.700  0.500  0.500296  61.513170  37.298600  24.031761
  11904.673  11904.700  0.500  0.504074  62.080508  37.500650  24.135694
  11906.678  11906.700  0.500  0.509098  62.106289  37.328189  23.993175
  11908.671  11908.700  0.500  0.515955  62.079586  37.057186  23.773730
  11908.949  11909.000  0.500  0.517202  62.082551  37.012778  23.738142
  11909.251  11909.300  0.500  0.518432  62.076814  36.963863  23.698053
  11909.548  11909.600  0.500  0.519845  62.066161  36.905336  23.650541
  11909.862  11909.900  0.500  0.521304  62.063608  36.849997  23.606025
  11910.153  11910.200  0.500  0.522795  62.054260  36.789574  23.554552
  11910.455  11910.500  0.500  0.524505  62.052132  36.725429  23.502543
  11910.758  11910.800  0.500  0.526226  62.061202  36.667670  23.455584
  11911.060  11911.100  0.500  0.528048  62.039490  36.588105  23.388953
  11911.369  11911.400  0.500  0.529964  62.034071  36.514886  23.331834
  11911.647  11911.700  0.500  0.531905  62.029130  36.441166  23.273096
  11911.956  11912.000  0.500  0.533987  62.038694  36.370994  23.214626
  11912.252  11912.300  0.500  0.536115  62.022665  36.284279  23.141852
  11912.555  11912.600  0.500  0.538563  62.017954  36.192829  23.073474
  11912.870  11912.900  0.500  0.541241  62.013335  36.093339  22.991400
  11913.166  11913.200  0.500  0.543824  62.012182  35.999549  22.912558
  11913.469  11913.500  0.500  0.546786  61.999432  35.885721  22.822597
  11913.759  11913.800  0.500  0.550170  62.000603  35.765158  22.725768
  11914.062  11914.100  0.500  0.553514  61.984402  35.636449  22.618307
  11914.371  11914.400  0.500  0.557338  61.988756  35.502930  22.509659
  11914.667  11914.700  0.500  0.561343  61.964048  35.346931  22.386513
  11914.976  11915.000  0.500  0.565846  61.947722  35.178833  22.251421
  11915.273  11915.300  0.500  0.570577  61.937215  35.006865  22.111362
  11915.575  11915.600  0.500  0.575985  61.909848  34.802690  21.949142
  11915.878  11915.900  0.500  0.581684  61.875295  34.585573  21.776810
  11916.193  11916.200  0.500  0.588016  61.771295  34.309510  21.561563
  11916.490  11916.500  0.500  0.594826  61.633080  34.000402  21.326473
  11916.793  11916.800  0.500  0.602537  61.492562  33.662315  21.067534
  11917.102  11917.100  0.500  0.610699  61.368967  33.321589  20.809752
  11917.386  11917.400  0.500  0.619655  61.291732  32.982937  20.540384
  11917.689  11917.700  0.500  0.629713  61.258498  32.635144  20.264366
  11917.992  11918.000  0.500  0.640780  61.308811  32.302450  19.995492
  11918.301  11918.300  0.500  0.653420  61.391308  31.939656  19.698665
  11918.598  11918.600  0.500  0.666573  61.497728  31.576933  19.401955
  11918.889  11918.900  0.500  0.681502  61.595158  31.158324  19.060634
  11919.179  11919.200  0.500  0.697817  61.701678  30.707093  18.694692
  11919.482  11919.500  0.500  0.716430  61.789968  30.183966  18.275618
  11919.779  11919.800  0.500  0.737084  61.830586  29.586391  17.803953
  11920.076  11920.100  0.500  0.758836  61.849193  28.958479  17.315241
  11920.385  11920.400  0.500  0.784272  61.865030  28.238401  16.758780
  11920.676  11920.700  0.500  0.811004  61.856446  27.489737  16.186421
  11920.991  11921.000  0.500  0.841383  61.858575  26.668097  15.560763
  11921.288  11921.300  0.500  0.870863  61.859345  25.893710  14.975331
  11921.603  11921.600  0.500  0.903254  61.856291  25.067199  14.354690
  11921.888  11921.900  0.500  0.933446  61.864292  24.324825  13.799842
  11922.197  11922.200  0.500  0.964922  61.843567  23.563191  13.238236
  11922.494  11922.500  0.500  0.995150  61.836816  22.859093  12.723344
  11922.804  11922.800  0.500  1.022250  61.830775  22.245760  12.275412
  11923.101  11923.100  0.500  1.046986  61.832178  21.702734  11.880850
  11923.398  11923.400  0.500  1.068497  61.821775  21.237289  11.545185
  11923.713  11923.700  0.500  1.089187  61.812986  20.799446  11.232399
  11924.010  11924.000  0.500  1.105641  61.807794  20.458292  10.991427
  11924.307  11924.300  0.500  1.119901  61.792928  20.163779  10.782810
  11924.598  11924.600  0.500  1.131868  61.793045  19.923958  10.611770
  11924.895  11924.900  0.500  1.141809  61.788913  19.725561  10.472778
  11925.198  11925.200  0.500  1.150305  61.779979  19.555838  10.354776
  11925.483  11925.500  0.500  1.156753  61.772515  19.427808  10.265390
  11925.805  11925.800  0.500  1.162265  61.764520  19.318523  10.186806
  11926.077  11926.100  0.500  1.165889  61.760262  19.247310  10.139116
  11926.381  11926.400  0.500  1.168663  61.759867  19.193861  10.103530
  11926.690  11926.700  0.500  1.170220  61.747394  19.160135  10.080433
  11926.994  11927.000  0.500  1.171177  61.743667  19.140660  10.067846
  11927.291  11927.300  0.500  1.171394  61.737308  19.134528  10.062969
  11927.582  11927.600  0.500  1.171443  61.730473  19.131474  10.063036
  11927.916  11927.900  0.500  1.171328  61.715731  19.129100  10.062843
  11928.201  11928.200  0.500  1.171070  61.713616  19.133386  10.064967
  11928.504  11928.500  0.500  1.171227  61.710698  19.129477  10.063116
  11928.802  11928.800  0.500  1.171604  61.703226  19.119955  10.056591
  11929.111  11929.100  0.500  1.172435  61.695708  19.101730  10.044310
  11929.403  11929.400  0.500  1.173582  61.685766  19.076776  10.024977
  11929.706  11929.700  0.500  1.175460  61.680572  19.039365  10.001281
  11930.003  11930.000  0.500  1.177733  61.673032  18.993819  9.969542
  11930.307  11930.300  0.500  1.180594  61.669940  18.938610  9.931424
  11930.610  11930.600  0.500  1.183798  61.670162  18.878094  9.891292
  11930.889  11930.900  0.500  1.187317  61.660605  18.808868  9.843424
  11931.199  11931.200  0.500  1.191357  61.653037  18.730728  9.788143
  11931.484  11931.500  0.500  1.195415  61.643102  18.651875  9.734561
  11931.788  11931.800  0.500  1.200101  61.636592  18.562710  9.673740
  11932.079  11932.100  0.500  1.204557  61.625677  18.476913  9.614439
  11932.401  11932.400  0.500  1.209701  61.614346  18.378733  9.546043
  11932.674  11932.700  0.500  1.214446  61.615596  18.292087  9.488807
  11932.996  11933.000  0.500  1.219638  61.599047  18.192482  9.421189
  11933.281  11933.300  0.500  1.224183  61.582862  18.105230  9.363506
  11933.597  11933.600  0.500  1.228817  61.543164  18.009904  9.298902
  11933.895  11933.900  0.500  1.233133  61.476448  17.912904  9.237682
  11934.199  11934.200  0.500  1.237074  61.342603  17.803595  9.169229
  11934.502  11934.500  0.500  1.240769  61.180574  17.691079  9.101514
  11934.800  11934.800  0.500  1.243839  61.035115  17.594925  9.040811
  11935.104  11935.100  0.500  1.246785  60.932519  17.513673  8.989972
  11935.401  11935.400  0.500  1.249197  60.891022  17.459584  8.956811
  11935.724  11935.700  0.500  1.251259  60.910736  17.429268  8.933010
  11936.003  11936.000  0.500  1.253053  60.975419  17.416503  8.923791
  11936.319  11936.300  0.500  1.254624  61.059912  17.413249  8.916597
  11936.604  11936.600  0.500  1.255891  61.174018  17.423700  8.919404
  11936.908  11936.900  0.500  1.256948  61.289955  17.438286  8.923930
  11937.200  11937.200  0.500  1.257739  61.375725  17.448873  8.928401
  11937.497  11937.500  0.500  1.258637  61.447022  17.453474  8.928166
  11937.789  11937.800  0.500  1.259347  61.474988  17.449025  8.923569
  11938.099  11938.100  0.500  1.259959  61.670455  17.493799  8.942593
  11938.390  11938.400  0.500  1.260778  61.680568  17.482343  8.933775
  11938.688  11938.700  0.500  1.261967  61.683219  17.462320  8.921864
  11938.980  11939.000  0.500  1.262959  61.670958  17.441535  8.907136
  11939.302  11939.300  0.500  1.264485  61.667065  17.413832  8.889212
  11939.588  11939.600  0.500  1.266067  61.668964  17.386841  8.870391
  11939.898  11939.900  0.500  1.267857  61.672987  17.356875  8.850918
  11940.190  11940.200  0.500  1.269594  61.669091  17.325671  8.828636
  11940.512  11940.500  0.500  1.271669  61.666915  17.289145  8.805629
  11940.798  11940.800  0.500  1.273460  61.652439  17.254144  8.781945
  11941.108  11941.100  0.500  1.275271  61.655770  17.223855  8.759401
  11941.406  11941.400  0.500  1.277104  61.654203  17.191891  8.740927
  11941.698  11941.700  0.500  1.278701  61.642740  17.161267  8.721842
  11942.002  11942.000  0.500  1.280325  61.637904  17.132062  8.701778
  11942.300  11942.300  0.500  1.282103  61.630167  17.099481  8.680319
  11942.604  11942.600  0.500  1.284050  61.624175  17.064559  8.656427
  11942.908  11942.900  0.500  1.286518  61.628510  17.023705  8.630390
  11943.200  11943.200  0.500  1.289181  61.616539  16.975135  8.597755
  11943.504  11943.500  0.500  1.292506  61.619118  16.919490  8.560895
  11943.684  11943.700  0.500  1.295029  61.615356  16.875825  8.531502
  11944.696  11944.690  0.500  1.312925  61.599453  16.572216  8.329595
  11945.690  11945.690  0.500  1.338400  61.587514  16.152252  8.050987
  11946.715  11946.710  0.500  1.366559  61.574721  15.700498  7.748256
  11947.771  11947.760  0.500  1.389256  61.559133  15.344269  7.516683
  11948.834  11948.820  0.500  1.398072  61.547806  15.206786  7.427589
  11949.909  11949.900  0.500  1.392727  61.526654  15.283035  7.477828
  11951.009  11951.000  0.500  1.376981  61.507365  15.520715  7.637865
  11952.141  11952.120  0.500  1.357315  61.494073  15.825553  7.838150
  11953.297  11953.260  0.500  1.340370  61.476344  16.091366  8.013584
  11954.436  11954.410  0.500  1.330847  61.464370  16.242173  8.116027
  11955.611  11955.590  0.500  1.326554  61.444167  16.306682  8.159842
  11956.787  11956.780  0.500  1.324076  61.430393  16.343483  8.185888
  11958.001  11958.000  0.500  1.319893  61.416891  16.408383  8.228652
  11959.227  11959.230  0.500  1.314866  61.395218  16.485251  8.282514
  11960.497  11960.480  0.500  1.312007  61.382583  16.529047  8.313671
  11961.768  11961.750  0.500  1.313953  61.359881  16.490813  8.288836
  11963.063  11963.040  0.500  1.320901  61.341053  16.371609  8.210120
  11964.353  11964.350  0.500  1.331786  61.324307  16.189937  8.088266
  11965.674  11965.680  0.500  1.345245  61.307981  15.969245  7.942917
  11967.039  11967.030  0.500  1.359388  61.291143  15.740661  7.790916
  11968.410  11968.400  0.500  1.372529  61.268705  15.529476  7.654033
  11969.788  11969.780  0.500  1.383148  61.244892  15.359471  7.543341
  11971.198  11971.190  0.500  1.389302  61.227908  15.261011  7.479914
  11972.621  11972.610  0.500  1.389162  61.208158  15.258224  7.478309
  11974.068  11974.050  0.500  1.383708  61.188812  15.336822  7.529980
  11975.523  11975.510  0.500  1.375834  61.161210  15.451077  7.610772
  11977.002  11976.990  0.500  1.367608  61.141571  15.573704  7.691740
  11978.495  11978.490  0.500  1.360454  61.122012  15.680510  7.762648
  11980.019  11980.010  0.500  1.354393  61.100208  15.770195  7.823381
  11981.556  11981.550  0.500  1.348892  61.076911  15.851150  7.877337
  11983.137  11983.110  0.500  1.344058  61.058092  15.923055  7.925605
  11984.687  11984.680  0.500  1.340538  61.035508  15.973295  7.959272
  11986.288  11986.280  0.500  1.336860  61.011158  16.025742  7.999238
  11987.883  11987.890  0.500  1.331832  60.991026  16.101214  8.051334
  11989.547  11989.530  0.500  1.324960  60.965393  16.205430  8.119542
  11991.200  11991.180  0.500  1.318211  60.938238  16.307907  8.189531
  11992.840  11992.850  0.500  1.313751  60.924330  16.377054  8.237531
  11994.543  11994.540  0.500  1.311862  60.892261  16.399396  8.255755
  11996.247  11996.250  0.500  1.312064  60.865987  16.389001  8.249577
  11998.001  11997.980  0.500  1.313907  60.849546  16.354404  8.225618
  11999.737  11999.730  0.500  1.316710  60.830019  16.303398  8.192852
  12001.499  12001.490  0.500  1.321346  60.795914  16.218888  8.138504
  12003.280  12003.280  0.500  1.327783  60.772210  16.108537  8.065903
  12005.086  12005.080  0.500  1.334997  60.751341  15.987260  7.985239
  12006.925  12006.910  0.500  1.341569  60.728854  15.876654  7.914531
  12008.732  12008.750  0.500  1.345858  60.710568  15.803945  7.866930
  12010.597  12010.610  0.500  1.347605  60.678281  15.767970  7.845482
  12012.494  12012.490  0.500  1.346740  60.657675  15.776252  7.851014
  12014.398  12014.390  0.500  1.344075  60.630277  15.811210  7.876748
  12016.302  12016.310  0.500  1.340450  60.608039  15.862818  7.911878
  12018.263  12018.250  0.500  1.336721  60.578549  15.914328  7.947758
  12020.207  12020.210  0.500  1.333801  60.562581  15.956662  7.977521
  12022.163  12022.180  0.500  1.331237  60.534429  15.990183  8.002549
  12024.145  12024.180  0.500  1.329589  60.506007  16.009046  8.016366
  12026.172  12026.190  0.500  1.328835  60.473041  16.012385  8.019187
  12028.358  12028.220  0.500  1.328652  60.434515  16.005114  8.017262
  12030.247  12030.280  0.500  1.328466  60.418994  16.003985  8.016184
  12032.623  12032.350  0.500  1.327984  60.390653  16.004190  8.017844
  12034.407  12034.440  0.500  1.326601  60.349296  16.015366  8.026970
  12036.589  12036.550  0.500  1.324352  60.316485  16.042685  8.047220
  12038.696  12038.680  0.500  1.321361  60.296521  16.085416  8.079399
  12040.835  12040.820  0.500  1.317469  60.262174  16.138956  8.116578
  12042.988  12042.990  0.500  1.313664  60.225705  16.190676  8.154419
  12045.167  12045.180  0.500  1.310044  60.156059  16.230605  8.183699
  12047.365  12047.380  0.500  1.307081  59.021424  15.971713  8.061147
  12049.596  12049.600  0.500  1.304588  59.175949  16.053506  8.108685
  12051.866  12051.850  0.500  1.303961  60.031468  16.295816  8.236290
  12054.124  12054.110  0.500  1.304488  60.045916  16.291140  8.231089
  12056.389  12056.390  0.500  1.306002  60.022294  16.260096  8.212613
  12058.680  12058.690  0.500  1.307962  59.996405  16.221266  8.187666
  12061.017  12061.010  0.500  1.310229  59.974323  16.178569  8.160171
  12063.367  12063.350  0.500  1.312055  59.934978  16.138453  8.134606
  12065.712  12065.700  0.500  1.313779  59.909620  16.103852  8.112721
  12068.095  12068.080  0.500  1.315183  59.878760  16.072963  8.095237
  12070.461  12070.470  0.500  1.315983  59.842689  16.050437  8.080401
  12072.891  12072.890  0.500  1.316753  59.813521  16.030263  8.071909
  12075.322  12075.320  0.500  1.317025  59.773547  16.015191  8.060933
  12077.779  12077.770  0.500  1.317073  59.744471  16.006644  8.057067
  12080.250  12080.250  0.500  1.316493  59.707346  16.005972  8.059362
  12082.735  12082.740  0.500  1.315687  59.680537  16.011695  8.066256
  12085.240  12085.250  0.500  1.315089  59.641223  16.010707  8.067569
  12087.791  12087.770  0.500  1.314815  59.605592  16.005534  8.065545
  12090.336  12090.320  0.500  1.315204  59.565030  15.988424  8.056695
  12092.895  12092.890  0.500  1.315363  59.360048  15.930867  8.024683
  12095.468  12095.470  0.500  1.315485  59.521049  15.972132  8.048061
  12098.086  12098.080  0.500  1.314202  59.487353  15.983573  8.058619
  12100.713  12100.700  0.500  1.311605  59.447853  16.014502  8.081818
  12103.353  12103.350  0.500  1.307566  59.412621  16.069786  8.120843
  12106.007  12106.010  0.500  1.302776  59.375895  16.136968  8.167740
  12108.687  12108.690  0.500  1.298834  59.344125  16.192027  8.207064
  12111.414  12111.390  0.500  1.295748  59.307320  16.232005  8.237562
  12114.129  12114.110  0.500  1.293624  59.270212  16.256337  8.254189
  12116.858  12116.850  0.500  1.292355  59.237558  16.268013  8.266329
  12119.589  12119.600  0.500  1.291123  59.198573  16.277354  8.273980
  12122.403  12122.380  0.500  1.290282  59.154785  16.278998  8.277059
  12125.181  12125.170  0.500  1.290117  59.120253  16.272179  8.274646
  12127.998  12127.990  0.500  1.290161  59.049201  16.251900  8.264817
  12130.798  12130.820  0.500  1.290835  58.978179  16.221427  8.247909
  12133.682  12133.670  0.500  1.291930  59.018725  16.214798  8.240956
  12136.555  12136.550  0.500  1.293919  58.981920  16.172495  8.215865
  12139.442  12139.440  0.500  1.296045  58.941368  16.127046  8.186849
  12142.337  12142.350  0.500  1.298686  58.899784  16.073171  8.152498
  12145.278  12145.270  0.500  1.301024  58.863029  16.025626  8.122568
  12148.227  12148.220  0.500  1.302803  58.817895  15.984880  8.097502
  12151.177  12151.190  0.500  1.303688  58.780146  15.960480  8.083649
  12154.168  12154.170  0.500  1.303377  58.740688  15.954739  8.081846
  12157.205  12157.180  0.500  1.301557  58.693048  15.970839  8.095718
  12160.205  12160.200  0.500  1.298904  58.641719  15.999264  8.116800
  12163.238  12163.250  0.500  1.295174  58.399856  15.992814  8.124057
  12166.319  12166.310  0.500  1.291177  58.582211  16.106999  8.194314
  12169.414  12169.390  0.500  1.286581  58.531497  16.167189  8.238323
  12172.497  12172.490  0.500  1.282210  58.491552  16.226938  8.282498
  12175.614  12175.610  0.500  1.278664  58.443265  16.271127  8.317099
  12178.785  12178.750  0.500  1.276341  58.398880  16.296588  8.336972
  12181.893  12181.900  0.500  1.275049  58.353698  16.305032  8.343537
  12185.073  12185.080  0.500  1.274793  58.311002  16.297274  8.339816
  12188.275  12188.270  0.500  1.274962  58.268567  16.282668  8.332280
  12191.504  12191.490  0.500  1.274995  58.222623  16.269284  8.325922
  12194.722  12194.720  0.500  1.273901  58.178055  16.274628  8.332257
  12197.993  12197.970  0.500  1.272302  58.133034  16.288057  8.343617
  12201.260  12201.250  0.500  1.271023  57.871777  16.235607  8.322300
  12204.548  12204.540  0.500  1.270496  58.056624  16.296046  8.354664
  12207.890  12207.850  0.500  1.270907  58.015576  16.277832  8.345361
  12211.181  12211.170  0.500  1.271943  57.963903  16.246500  8.327678
  12214.533  12214.520  0.500  1.273138  57.927221  16.216832  8.309362
  12217.919  12217.890  0.500  1.274082  57.884444  16.189556  8.290152
  12221.288  12221.270  0.500  1.274964  57.839839  16.162827  8.275385
  12224.698  12224.680  0.500  1.275438  57.791897  16.141776  8.265737
  12228.129  12228.100  0.500  1.275083  57.751979  16.136358  8.264688
  12231.562  12231.550  0.500  1.273576  57.701160  16.146460  8.274081
  12235.023  12235.010  0.500  1.271079  56.560700  15.866910  8.140435
  12238.499  12238.490  0.500  1.267431  57.464474  16.179353  8.308388
  12242.003  12241.990  0.500  1.263734  57.531580  16.258238  8.361754
  12245.522  12245.510  0.500  1.260118  57.499635  16.308083  8.397312
  12249.076  12249.050  0.500  1.257172  57.457396  16.344182  8.424919
  12252.606  12252.600  0.500  1.255249  57.409181  16.361890  8.440507
  12256.197  12256.180  0.500  1.253749  57.234868  16.336708  8.430806
  12259.803  12259.780  0.500  1.252713  57.311483  16.375531  8.455232
  12263.392  12263.390  0.500  1.252052  56.815959  16.244682  8.390172
  12267.055  12267.020  0.500  1.251025  56.949595  16.299619  8.421251
  12270.700  12270.680  0.500  1.249937  57.021499  16.337954  8.445098
  12274.374  12274.350  0.500  1.248907  57.128923  16.385611  8.472945
  12278.083  12278.040  0.500  1.247629  57.079685  16.392430  8.481716
  12281.768  12281.750  0.500  1.246394  57.017690  16.394848  8.487756
  12285.494  12285.480  0.500  1.245373  56.904807  16.379118  8.481536
  12289.236  12289.220  0.500  1.245263  56.888549  16.376227  8.482024
  12293.000  12292.990  0.500  1.245109  56.578238  16.289416  8.437688
  12296.793  12296.780  0.500  1.245366  56.957021  16.394260  8.492023
  12300.602  12300.580  0.500  1.244936  56.849788  16.370426  8.480615
  12304.399  12304.410  0.500  1.244370  56.878931  16.388099  8.490727
  12308.278  12308.250  0.500  1.243852  56.833793  16.383570  8.491287
  12312.107  12312.110  0.500  1.243011  56.780503  16.381983  8.494667
  12315.998  12315.990  0.500  1.241889  56.727348  16.385018  8.499320
  12319.917  12319.890  0.500  1.240589  56.281838  16.277478  8.447552
  12323.806  12323.810  0.500  1.238340  56.401182  16.348731  8.492819
  12327.790  12327.750  0.500  1.235607  56.546380  16.435669  8.544173
  12331.724  12331.710  0.500  1.232919  56.517813  16.471585  8.572473
  12335.680  12335.680  0.500  1.229822  56.465131  16.507279  8.601234
  12339.719  12339.680  0.500  1.227127  56.422110  16.539212  8.626598
  12343.680  12343.690  0.500  1.225031  56.367863  16.557985  8.644485
  12347.757  12347.730  0.500  1.223317  56.311947  16.569934  8.653844
  12351.790  12351.780  0.500  1.222202  56.256594  16.572115  8.660180
  12355.873  12355.850  0.500  1.221319  56.208756  16.572641  8.663851
  12359.958  12359.940  0.500  1.220731  56.171095  16.571283  8.665104
  12364.052  12364.050  0.500  1.220043  56.047869  16.546305  8.654271
  12368.203  12368.180  0.500  1.219281  56.066196  16.564342  8.665589
  12372.323  12372.330  0.500  1.218727  55.969724  16.545000  8.657536
  12376.512  12376.490  0.500  1.218093  55.958444  16.552155  8.664219
  12380.698  12380.680  0.500  1.217306  55.891337  16.545328  8.662885
  12384.880  12384.880  0.500  1.216300  55.458797  16.433810  8.608485
  12389.132  12389.110  0.500  1.215281  55.812944  16.555614  8.676970
  12393.353  12393.350  0.500  1.214233  55.758417  16.556780  8.680704
  12397.651  12397.610  0.500  1.213060  55.701086  16.559164  8.686772
  12401.898  12401.890  0.500  1.211531  55.646258  16.568170  8.695679
  12406.215  12406.190  0.500  1.209762  55.586022  16.579551  8.707428
  12410.542  12410.510  0.500  1.207888  55.503527  16.585999  8.717036
  12414.865  12414.850  0.500  1.205977  55.473679  16.608781  8.734872
  12419.238  12419.210  0.500  1.204081  55.416728  16.623219  8.750824
  12423.615  12423.590  0.500  1.201949  55.342979  16.636537  8.764246
  12428.015  12427.980  0.500  1.200018  55.304211  16.657010  8.781937
  12432.404  12432.400  0.500  1.197855  55.231505  16.671130  8.795234
  12436.857  12436.830  0.500  1.195837  54.815052  16.578851  8.753842
  12441.307  12441.280  0.500  1.193813  55.156241  16.715843  8.832644
  12445.747  12445.750  0.500  1.192027  55.089055  16.725330  8.841962
  12450.277  12450.240  0.500  1.190347  55.026902  16.734549  8.853676
  12454.784  12454.750  0.500  1.188822  54.906606  16.723453  8.850864
  12459.314  12459.280  0.500  1.187806  54.915074  16.743023  8.868267
  12463.835  12463.830  0.500  1.186589  54.853120  16.744496  8.872548
  12468.453  12468.400  0.500  1.185475  54.760808  16.734962  8.871276
  12473.000  12472.980  0.500  1.184449  54.742815  16.746626  8.880325
  12477.619  12477.590  0.500  1.183447  54.675302  16.742738  8.883720
  12482.261  12482.210  0.500  1.182423  54.604686  16.738247  8.882944
  12486.887  12486.860  0.500  1.181161  54.273194  16.657653  8.845122
  12491.556  12491.520  0.500  1.180009  54.521597  16.753171  8.899157
  12496.223  12496.200  0.500  1.178809  54.455063  16.752822  8.904817
  12500.927  12500.900  0.500  1.177213  54.391266  16.759920  8.913207
  12505.641  12505.620  0.500  1.175781  54.328637  16.764621  8.922856
  12510.386  12510.360  0.500  1.174109  54.267234  16.773687  8.931843
  12515.156  12515.110  0.500  1.172230  54.206475  16.786426  8.946398
  12519.902  12519.890  0.500  1.170245  54.150804  16.802506  8.961900
  12524.733  12524.690  0.500  1.168135  54.079870  16.815936  8.974946
  12529.527  12529.500  0.500  1.166078  54.020945  16.832201  8.989563
  12534.373  12534.330  0.500  1.164050  53.954063  16.845498  9.003999
  12539.216  12539.190  0.500  1.162234  53.838570  16.839982  9.009877
  12544.076  12544.060  0.500  1.160011  53.850222  16.881117  9.036124
  12548.995  12548.950  0.500  1.158367  53.784472  16.888246  9.047896
  12553.884  12553.860  0.500  1.156479  53.717910  16.899226  9.060395
  12558.831  12558.790  0.500  1.154591  53.655520  16.911489  9.072716
  12563.783  12563.730  0.500  1.152786  53.588489  16.920876  9.084398
  12568.724  12568.700  0.500  1.151008  53.523907  16.930564  9.093229
  12573.746  12573.690  0.500  1.149592  53.457511  16.933519  9.101514
  12578.716  12578.690  0.500  1.148272  53.386972  16.933510  9.106887
  12583.773  12583.720  0.500  1.147014  53.333348  16.937800  9.112700
  12588.793  12588.760  0.500  1.145778  53.268522  16.938135  9.118949
  12593.865  12593.820  0.500  1.144709  53.203212  16.935464  9.121052
  12598.941  12598.900  0.500  1.143398  53.137620  16.936772  9.126048
  12604.042  12604.000  0.500  1.142033  53.067589  16.937549  9.131202
  12609.168  12609.120  0.500  1.140528  53.002811  16.942365  9.140881
  12614.278  12614.260  0.500  1.138851  52.936321  16.949506  9.149869
  12619.482  12619.420  0.500  1.137011  52.871900  16.960056  9.160181
  12624.642  12624.600  0.500  1.135278  52.789892  16.963119  9.169410
  12629.834  12629.790  0.500  1.133044  52.708649  16.974890  9.182809
  12635.051  12635.010  0.500  1.131166  52.611050  16.975318  9.188782
  12640.272  12640.240  0.500  1.129064  52.610225  17.010763  9.215585
  12645.554  12645.490  0.500  1.127117  52.548895  17.024057  9.230547
  12650.777  12650.760  0.500  1.125112  52.468768  17.032200  9.240831
  12656.102  12656.050  0.500  1.123198  52.419619  17.048849  9.257840
  12661.390  12661.360  0.500  1.121222  52.346861  17.058864  9.269832
  12666.738  12666.690  0.500  1.119203  52.285718  17.073372  9.283897
  12672.070  12672.040  0.500  1.117442  52.216296  17.080754  9.296583
  12677.456  12677.410  0.500  1.115556  52.150876  17.091558  9.307632
  12682.825  12682.790  0.500  1.113693  52.078262  17.099588  9.317658
  12688.241  12688.200  0.500  1.111822  52.015123  17.110838  9.330084
  12693.669  12693.620  0.500  1.110267  51.943157  17.113765  9.339511
  12699.108  12699.070  0.500  1.108495  51.874194  17.121348  9.348799
  12704.573  12704.530  0.500  1.106809  51.801565  17.126240  9.356147
  12710.043  12710.010  0.500  1.105173  51.734571  17.132089  9.366789
  12715.553  12715.510  0.500  1.103437  51.664596  17.138642  9.374254
  12721.089  12721.030  0.500  1.102013  51.590759  17.138539  9.381054
  12726.623  12726.570  0.500  1.100381  51.520749  17.143229  9.390081
  12732.168  12732.120  0.500  1.098838  51.443260  17.143878  9.395548
  12737.740  12737.700  0.500  1.097034  50.798909  16.959722  9.301185
  12743.366  12743.300  0.500  1.095230  51.312716  17.162197  9.418893
  12748.906  12748.910  0.500  1.093409  51.250235  17.172539  9.430704
  12754.577  12754.550  0.500  1.091461  51.171712  17.179656  9.440144
  12760.219  12760.200  0.500  1.089521  51.102804  17.189833  9.453454
  12765.915  12765.870  0.500  1.087528  51.031973  17.200258  9.466964
  12771.595  12771.560  0.500  1.085510  50.965815  17.212667  9.482233
