# XDI/1.0 BlueSky/1.10.0 BMM/2023-1.0-py310-tiled
# Beamline.name: BMM (06BM) -- Beamline for Materials Measurement (NIST)
# Beamline.xray_source: NSLS-II three-pole wiggler
# Beamline.collimation: paraboloid mirror, 5 nm Rh on 30 nm Pt
# Beamline.focusing: not in use
# Beamline.harmonic_rejection: flat mirror, Pt stripe, pitch = 7.0 mrad relative to beam
# Beamline.software: Bluesky 1.10.0, Ophyd 1.7.0, DataBroker 2.0.0b13, Python 3.10.8, 2023-1.0-py310-tiled
# Detector.I0: 10 cm N2
# Detector.I1: 25 cm N2
# Detector.I2: 25 cm N2
# Element.symbol: Au
# Element.edge: L3
# Element.reference: Au
# Element.reference_material: Au foil
# Facility.name: NSLS-II
# Facility.energy: 3.0
# Facility.current: 399.9
# Facility.mode: top-off
# Facility.GUP: 301027
# Facility.SAF: 310583
# Facility.cycle: 2023-2
# Mono.name: Si(111)
# Mono.d_spacing: 3.1351860
# Mono.encoder_resolution: 0.0000050 deg/ct
# Mono.angle_offset: 16.0754326 deg
# Mono.scan_mode: pseudo channel cut
# Mono.scan_type: step
# Mono.direction: forward in energy
# Sample.name: C4H3AuNa2O4S, gold thiomalate
# Sample.prep: powder in BN pellet
# Sample.x: 145.711 mm
# Sample.y: 114.376 mm
# Sample.SDD_position: 205.000 mm
# Scan.experimenters: Bruce Ravel
# Scan.edge_energy: 11918.7
# Scan.start_time: 2023-06-27T17:58:55
# Scan.end_time: 2023-06-27T18:06:44
# Scan.transient_id: 85207
# Scan.uid: 70e42fbc-7773-44d1-b20a-9d1a595e210e
# Scan.plot_hint: ln(I0/It)  --  ln($5/$6)
# Column.1: energy eV
# Column.2: requested_energy eV
# Column.3: measurement_time seconds
# Column.4: xmu 
# Column.5: I0 nA
# Column.6: It nA
# Column.7: Ir nA
# ///////////
# Welcome to BMM
# -----------
# energy  requested_energy  measurement_time  xmu  I0  It  Ir
  11718.678  11718.700  0.500  0.657696  64.530194  33.429448  21.264547
  11728.723  11728.700  0.500  0.654526  64.395846  33.465785  21.313808
  11738.708  11738.700  0.500  0.651309  64.255285  33.500311  21.361173
  11748.734  11748.700  0.500  0.648174  64.036207  33.490919  21.377596
  11758.735  11758.700  0.500  0.645046  63.798064  33.470912  21.389683
  11768.765  11768.700  0.500  0.641834  63.855749  33.608955  21.500316
  11778.770  11778.700  0.500  0.638846  63.527150  33.536069  21.477341
  11788.739  11788.700  0.500  0.635642  63.593129  33.678615  21.588613
  11798.730  11798.700  0.500  0.632648  63.450034  33.703598  21.630157
  11808.782  11808.700  0.500  0.629613  63.289241  33.720374  21.660275
  11818.692  11818.700  0.500  0.626769  63.156894  33.745685  21.701161
  11828.717  11828.700  0.500  0.623814  63.010401  33.767078  21.731875
  11838.735  11838.700  0.500  0.621091  62.924936  33.813208  21.783449
  11848.727  11848.700  0.500  0.618398  62.596925  33.727672  21.749524
  11858.730  11858.700  0.500  0.615972  62.547420  33.782832  21.801762
  11868.732  11868.700  0.500  0.613994  62.517081  33.833300  21.844902
  11878.727  11878.700  0.500  0.612573  62.384633  33.809645  21.838450
  11888.732  11888.700  0.500  0.612452  62.220956  33.725019  21.781567
  11890.676  11890.700  0.500  0.612691  62.200840  33.706055  21.764748
  11892.670  11892.700  0.500  0.613220  62.179127  33.676481  21.746393
  11894.671  11894.700  0.500  0.613586  62.146136  33.646282  21.719822
  11896.666  11896.700  0.500  0.614299  62.121008  33.608712  21.685259
  11898.687  11898.700  0.500  0.615332  62.085101  33.554613  21.641611
  11900.659  11900.700  0.500  0.616562  61.971615  33.452080  21.563137
  11902.663  11902.700  0.500  0.618206  61.386617  33.081874  21.303804
  11904.673  11904.700  0.500  0.620639  61.961208  33.310384  21.434087
  11906.684  11906.700  0.500  0.623732  61.999832  33.228212  21.351247
  11908.683  11908.700  0.500  0.627836  61.980571  33.081842  21.212790
  11908.936  11909.000  0.500  0.628574  61.983026  33.058765  21.193221
  11909.245  11909.300  0.500  0.629362  61.971824  33.026744  21.163089
  11909.541  11909.600  0.500  0.630155  61.968356  32.998737  21.137520
  11909.844  11909.900  0.500  0.630987  61.952064  32.962612  21.105143
  11910.159  11910.200  0.500  0.632026  61.952300  32.928510  21.075678
  11910.443  11910.500  0.500  0.632921  61.944057  32.894683  21.043344
  11910.758  11910.800  0.500  0.634046  61.945635  32.858538  21.010770
  11911.060  11911.100  0.500  0.635055  61.933658  32.819029  20.973801
  11911.350  11911.400  0.500  0.636308  62.118240  32.875644  21.001098
  11911.671  11911.700  0.500  0.637561  62.116082  32.833311  20.958551
  11911.968  11912.000  0.500  0.638748  62.107670  32.789928  20.919150
  11912.270  11912.300  0.500  0.640200  62.100897  32.738793  20.874427
  11912.585  11912.600  0.500  0.641513  62.088758  32.689422  20.828203
  11912.876  11912.900  0.500  0.643060  62.090774  32.639967  20.782998
  11913.172  11913.200  0.500  0.644590  62.087670  32.588419  20.732789
  11913.487  11913.500  0.500  0.646425  62.081987  32.525722  20.672842
  11913.784  11913.800  0.500  0.648367  62.066575  32.454544  20.610108
  11914.086  11914.100  0.500  0.650454  62.066287  32.386724  20.549970
  11914.389  11914.400  0.500  0.652566  62.055663  32.312886  20.479621
  11914.673  11914.700  0.500  0.654817  62.043795  32.234039  20.407423
  11915.001  11915.000  0.500  0.657411  62.032126  32.144487  20.319897
  11915.297  11915.300  0.500  0.660167  62.017782  32.048617  20.234300
  11915.594  11915.600  0.500  0.663171  61.991615  31.938997  20.135939
  11915.891  11915.900  0.500  0.666433  61.931730  31.804252  20.018798
  11916.181  11916.200  0.500  0.669626  61.849283  31.660633  19.892801
  11916.484  11916.500  0.500  0.673620  61.713266  31.465097  19.729086
  11916.793  11916.800  0.500  0.677679  61.586700  31.273366  19.570547
  11917.083  11917.100  0.500  0.682053  61.456043  31.070808  19.397120
  11917.386  11917.400  0.500  0.686841  61.365490  30.876862  19.224980
  11917.664  11917.700  0.500  0.691916  61.334034  30.704812  19.065247
  11917.986  11918.000  0.500  0.698162  61.394195  30.543544  18.902314
  11918.276  11918.300  0.500  0.704315  61.456088  30.386802  18.739751
  11918.592  11918.600  0.500  0.711541  61.559549  30.218806  18.562568
  11918.876  11918.900  0.500  0.719158  61.669368  30.042999  18.376996
  11919.191  11919.200  0.500  0.728307  61.775782  29.820763  18.146326
  11919.482  11919.500  0.500  0.738049  61.865309  29.574437  17.900317
  11919.791  11919.800  0.500  0.749223  61.925228  29.274152  17.608297
  11920.076  11920.100  0.500  0.761098  61.946798  28.938657  17.294597
  11920.391  11920.400  0.500  0.775779  61.957197  28.521700  16.912571
  11920.707  11920.700  0.500  0.791757  61.960257  28.070968  16.509183
  11920.997  11921.000  0.500  0.809002  61.975403  27.597800  16.093918
  11921.300  11921.300  0.500  0.828659  61.964935  27.056019  15.631726
  11921.610  11921.600  0.500  0.851091  61.959983  26.453750  15.135509
  11921.888  11921.900  0.500  0.873815  61.944880  25.853096  14.654963
  11922.203  11922.200  0.500  0.900275  61.948442  25.179432  14.135292
  11922.500  11922.500  0.500  0.926534  61.947057  24.526290  13.645830
  11922.804  11922.800  0.500  0.954876  61.942414  23.839161  13.147883
  11923.094  11923.100  0.500  0.981151  61.935080  23.218182  12.711666
  11923.391  11923.400  0.500  1.007691  61.941256  22.612341  12.294158
  11923.695  11923.700  0.500  1.032425  61.931459  22.056414  11.914631
  11923.992  11924.000  0.500  1.054811  61.930411  21.567781  11.589400
  11924.282  11924.300  0.500  1.073961  61.925543  21.157014  11.313260
  11924.573  11924.600  0.500  1.089641  61.922463  20.826825  11.094730
  11924.883  11924.900  0.500  1.102980  61.916101  20.548761  10.909510
  11925.186  11925.200  0.500  1.112585  61.906644  20.349213  10.772619
  11925.502  11925.500  0.500  1.119608  61.901805  20.205232  10.672999
  11925.786  11925.800  0.500  1.123746  61.907101  20.123512  10.611572
  11926.102  11926.100  0.500  1.126447  61.899534  20.066784  10.568416
  11926.387  11926.400  0.500  1.127367  61.890314  20.045343  10.547426
  11926.709  11926.700  0.500  1.127705  61.892656  20.039329  10.539591
  11927.000  11927.000  0.500  1.127625  61.874025  20.034902  10.536857
  11927.303  11927.300  0.500  1.127509  61.871893  20.036532  10.534540
  11927.607  11927.600  0.500  1.127591  61.868540  20.033794  10.533075
  11927.898  11927.900  0.500  1.128134  61.871343  20.023835  10.531045
  11928.213  11928.200  0.500  1.129238  61.858445  19.997561  10.516928
  11928.492  11928.500  0.500  1.130704  61.857520  19.967979  10.499404
  11928.814  11928.800  0.500  1.133042  61.852829  19.919829  10.473857
  11929.099  11929.100  0.500  1.135715  61.839946  19.862524  10.439902
  11929.396  11929.400  0.500  1.138998  61.835555  19.796006  10.402125
  11929.694  11929.700  0.500  1.142538  61.833206  19.725316  10.358989
  11929.991  11930.000  0.500  1.146343  61.832231  19.650092  10.311300
  11930.288  11930.300  0.500  1.150381  61.825833  19.568870  10.258837
  11930.586  11930.600  0.500  1.154698  61.819746  19.482666  10.203394
  11930.889  11930.900  0.500  1.158721  61.814657  19.402850  10.151508
  11931.180  11931.200  0.500  1.162463  61.811436  19.329358  10.098838
  11931.490  11931.500  0.500  1.166298  61.802369  19.252548  10.046080
  11931.788  11931.800  0.500  1.169699  61.787975  19.182718  9.993540
  11932.097  11932.100  0.500  1.172777  61.779403  19.121113  9.945146
  11932.389  11932.400  0.500  1.175312  61.771646  19.070299  9.904531
  11932.711  11932.700  0.500  1.177535  61.766576  19.026395  9.864320
  11933.002  11933.000  0.500  1.179293  61.756192  18.989791  9.829737
  11933.306  11933.300  0.500  1.180910  61.747323  18.956387  9.797181
  11933.610  11933.600  0.500  1.181781  61.704862  18.926862  9.768029
  11933.901  11933.900  0.500  1.182768  61.631885  18.885812  9.734494
  11934.217  11934.200  0.500  1.183377  61.511211  18.837373  9.698055
  11934.502  11934.500  0.500  1.183823  61.361457  18.783124  9.659105
  11934.806  11934.800  0.500  1.184199  61.206427  18.728620  9.620917
  11935.110  11935.100  0.500  1.184385  61.108892  18.695312  9.593346
  11935.407  11935.400  0.500  1.184448  61.054321  18.677438  9.577502
  11935.699  11935.700  0.500  1.184563  61.068902  18.679747  9.572827
  11936.003  11936.000  0.500  1.184697  61.136625  18.697954  9.577481
  11936.288  11936.300  0.500  1.184668  61.223639  18.725109  9.585940
  11936.598  11936.600  0.500  1.184781  61.331881  18.756102  9.598320
  11936.877  11936.900  0.500  1.184961  61.450679  18.789050  9.611121
  11937.200  11937.200  0.500  1.185222  61.551663  18.815000  9.621091
  11937.485  11937.500  0.500  1.185428  61.607580  18.828230  9.627549
  11937.801  11937.800  0.500  1.185717  61.655433  18.837408  9.629744
  11938.093  11938.100  0.500  1.185998  61.651499  18.830901  9.625419
  11938.415  11938.400  0.500  1.186395  61.658277  18.825494  9.616371
  11938.694  11938.700  0.500  1.186841  61.656870  18.816679  9.608527
  11939.011  11939.000  0.500  1.187714  61.671875  18.804826  9.600493
  11939.302  11939.300  0.500  1.188253  61.656099  18.789892  9.589260
  11939.613  11939.600  0.500  1.189143  61.670843  18.777666  9.575861
  11939.898  11939.900  0.500  1.189996  61.655963  18.757129  9.562386
  11940.208  11940.200  0.500  1.191009  61.656982  18.738456  9.544912
  11940.494  11940.500  0.500  1.192152  61.646951  18.713989  9.528011
  11940.810  11940.800  0.500  1.193158  61.640846  18.693323  9.510077
  11941.108  11941.100  0.500  1.194382  61.638738  18.669825  9.492809
  11941.406  11941.400  0.500  1.195671  61.636693  18.645147  9.476308
  11941.698  11941.700  0.500  1.196915  61.639397  18.622790  9.461256
  11942.002  11942.000  0.500  1.198192  61.622325  18.593875  9.441253
  11942.300  11942.300  0.500  1.199592  61.620899  18.567435  9.420821
  11942.598  11942.600  0.500  1.201108  61.618955  18.538717  9.401744
  11942.890  11942.900  0.500  1.202427  61.617941  18.513974  9.382713
  11943.206  11943.200  0.500  1.203855  61.615838  18.486931  9.360430
  11943.492  11943.500  0.500  1.205261  61.608302  18.458705  9.335661
  11943.691  11943.700  0.500  1.206243  61.611091  18.441419  9.320107
  11944.690  11944.690  0.500  1.211242  61.591138  18.343520  9.214596
  11945.709  11945.690  0.500  1.216207  61.570831  18.246644  9.087780
  11946.746  11946.710  0.500  1.221132  61.561449  18.154239  8.954496
  11947.777  11947.760  0.500  1.225754  61.545916  18.065963  8.845459
  11948.846  11948.820  0.500  1.229857  61.527871  17.986708  8.781833
  11949.909  11949.900  0.500  1.233515  61.511558  17.916293  8.763302
  11951.009  11951.000  0.500  1.237375  61.493577  17.842048  8.773769
  11952.128  11952.120  0.500  1.241037  61.481257  17.773265  8.800168
  11953.279  11953.260  0.500  1.244179  61.466624  17.713285  8.817994
  11954.429  11954.410  0.500  1.247217  61.456762  17.656734  8.818403
  11955.599  11955.590  0.500  1.250080  61.426187  17.597489  8.802080
  11956.781  11956.780  0.500  1.252752  61.414934  17.547314  8.783739
  11958.007  11958.000  0.500  1.255338  61.397308  17.496979  8.772841
  11959.240  11959.230  0.500  1.257671  61.381839  17.451810  8.763029
  11960.503  11960.480  0.500  1.259924  61.362549  17.407054  8.748600
  11961.768  11961.750  0.500  1.261903  61.338926  17.365951  8.723219
  11963.026  11963.040  0.500  1.264013  61.327441  17.326108  8.686010
  11964.347  11964.350  0.500  1.265688  61.306597  17.291238  8.635471
  11965.686  11965.680  0.500  1.267282  61.297921  17.261252  8.584691
  11967.058  11967.030  0.500  1.268333  61.266867  17.234382  8.528108
  11968.417  11968.400  0.500  1.269055  61.245790  17.216024  8.482735
  11969.795  11969.780  0.500  1.269685  61.227305  17.199975  8.445319
  11971.198  11971.190  0.500  1.270011  61.203865  17.187788  8.420097
  11972.608  11972.610  0.500  1.270181  61.184994  17.179566  8.417393
  11974.068  11974.050  0.500  1.269868  61.162041  17.178504  8.434133
  11975.529  11975.510  0.500  1.269022  61.146053  17.188544  8.461613
  11976.984  11976.990  0.500  1.267410  61.122624  17.209688  8.496021
  11978.495  11978.490  0.500  1.265270  61.104741  17.241504  8.533894
  11980.025  11980.010  0.500  1.262077  61.079488  17.289488  8.576076
  11981.556  11981.550  0.500  1.258113  61.058943  17.352330  8.621387
  11983.106  11983.110  0.500  1.253849  61.030648  17.418395  8.667559
  11984.656  11984.680  0.500  1.249243  61.008747  17.492534  8.715784
  11986.276  11986.280  0.500  1.244240  60.986022  17.573723  8.766979
  11987.890  11987.890  0.500  1.239634  60.971242  17.650572  8.820645
  11989.510  11989.530  0.500  1.235282  60.946162  17.720272  8.875227
  11991.143  11991.180  0.500  1.231542  60.922762  17.779826  8.925213
  11992.840  11992.850  0.500  1.228361  60.891058  17.827202  8.964753
  11994.518  11994.540  0.500  1.225991  60.870658  17.863517  8.989324
  11996.240  11996.250  0.500  1.224151  60.846664  17.889358  8.999740
  11997.957  11997.980  0.500  1.223119  60.824891  17.901429  9.002813
  11999.718  11999.730  0.500  1.222407  60.802853  17.907682  8.996679
  12001.611  12001.490  0.500  1.222134  60.776058  17.904674  8.980433
  12003.223  12003.280  0.500  1.222128  60.733215  17.892163  8.955276
  12005.343  12005.080  0.500  1.222654  60.714527  17.877253  8.924381
  12007.019  12006.910  0.500  1.223252  60.683944  17.857560  8.897497
  12008.789  12008.750  0.500  1.223976  60.661690  17.838095  8.875135
  12010.629  12010.610  0.500  1.224835  60.638023  17.815831  8.860397
  12012.525  12012.490  0.500  1.225642  60.606818  17.792292  8.851923
  12014.429  12014.390  0.500  1.226842  60.592344  17.766710  8.847507
  12016.333  12016.310  0.500  1.228063  60.558558  17.735129  8.844206
  12018.257  12018.250  0.500  1.229475  60.534263  17.703008  8.839212
  12020.213  12020.210  0.500  1.230746  60.507840  17.672803  8.832796
  12022.194  12022.180  0.500  1.232286  60.487364  17.639644  8.824632
  12024.202  12024.180  0.500  1.233588  60.454216  17.607027  8.812861
  12026.216  12026.190  0.500  1.235116  60.425406  17.571766  8.798793
  12028.232  12028.220  0.500  1.236356  60.398155  17.542074  8.785558
  12030.285  12030.280  0.500  1.237181  60.371918  17.519992  8.774902
  12032.352  12032.350  0.500  1.237634  60.549537  17.563581  8.798524
  12034.451  12034.440  0.500  1.237447  60.514161  17.556607  8.799223
  12036.576  12036.550  0.500  1.236539  60.486165  17.564427  8.808501
  12038.715  12038.680  0.500  1.234837  60.456233  17.585646  8.828090
  12040.835  12040.820  0.500  1.232527  60.430544  17.618813  8.858222
  12042.982  12042.990  0.500  1.229504  60.378635  17.656989  8.888586
  12045.186  12045.180  0.500  1.226169  60.315353  17.697407  8.921904
  12047.397  12047.380  0.500  1.222671  59.147682  17.415594  8.788136
  12049.622  12049.600  0.500  1.219114  59.377357  17.545523  8.859642
  12051.866  12051.850  0.500  1.216302  60.190995  17.836037  9.011602
  12054.118  12054.110  0.500  1.213861  60.209747  17.885193  9.034244
  12056.389  12056.390  0.500  1.211685  60.182790  17.916123  9.046033
  12058.706  12058.690  0.500  1.209924  60.155885  17.939681  9.051473
  12061.029  12061.010  0.500  1.208712  60.126508  17.952677  9.052329
  12063.373  12063.350  0.500  1.207599  60.099975  17.964723  9.051490
  12065.712  12065.700  0.500  1.206855  60.070525  17.969288  9.049975
  12068.083  12068.080  0.500  1.206109  60.033568  17.971632  9.047507
  12070.461  12070.470  0.500  1.205500  60.003217  17.973489  9.047412
  12072.903  12072.890  0.500  1.205072  59.963977  17.969430  9.044368
  12075.347  12075.320  0.500  1.204712  59.937987  17.968115  9.042248
  12077.779  12077.770  0.500  1.204191  59.906501  17.968023  9.041824
  12080.238  12080.250  0.500  1.203934  59.860162  17.958746  9.039704
  12082.748  12082.740  0.500  1.203849  59.832038  17.951842  9.038099
  12085.278  12085.250  0.500  1.203951  59.796030  17.939204  9.037430
  12087.791  12087.770  0.500  1.204228  59.762438  17.924164  9.028907
  12090.329  12090.320  0.500  1.204657  59.722220  17.904417  9.020416
  12092.895  12092.890  0.500  1.205160  59.517693  17.834120  8.982637
  12095.474  12095.470  0.500  1.206008  59.667291  17.863792  8.999658
  12098.099  12098.080  0.500  1.206632  59.636317  17.843382  8.991872
  12100.725  12100.700  0.500  1.207359  59.599799  17.819501  8.988385
  12103.333  12103.350  0.500  1.208109  59.562356  17.794953  8.989638
  12105.994  12106.010  0.500  1.208505  59.532474  17.778988  8.996369
  12108.700  12108.690  0.500  1.208541  59.491995  17.766249  9.002677
  12111.395  12111.390  0.500  1.208163  59.456959  17.762503  9.010685
  12114.104  12114.110  0.500  1.207377  59.425280  17.766991  9.018177
  12116.839  12116.850  0.500  1.206177  59.382160  17.775416  9.026185
  12119.614  12119.600  0.500  1.204770  59.352806  17.791646  9.039180
  12122.391  12122.380  0.500  1.203270  59.311920  17.806092  9.051197
  12125.155  12125.170  0.500  1.201271  59.270836  17.829359  9.062583
  12127.998  12127.990  0.500  1.199334  59.206186  17.844446  9.071204
  12130.824  12130.820  0.500  1.197409  59.132516  17.856585  9.076455
  12133.676  12133.670  0.500  1.195506  59.175979  17.903735  9.098568
  12136.555  12136.550  0.500  1.193578  59.133161  17.925310  9.104218
  12139.455  12139.440  0.500  1.191666  59.095850  17.948286  9.107295
  12142.362  12142.350  0.500  1.189939  59.056532  17.967350  9.111397
  12145.271  12145.270  0.500  1.188303  59.015090  17.984135  9.113153
  12148.233  12148.220  0.500  1.186678  58.971518  18.000083  9.115454
  12151.216  12151.190  0.500  1.185154  58.931013  18.015151  9.121600
  12154.174  12154.170  0.500  1.183822  58.893342  18.027643  9.129340
  12157.179  12157.180  0.500  1.182564  58.845774  18.035758  9.141166
  12160.224  12160.200  0.500  1.181347  58.797426  18.042875  9.152753
  12163.271  12163.250  0.500  1.180117  58.553111  17.990014  9.137152
  12166.319  12166.310  0.500  1.179301  58.731625  18.059594  9.184913
  12169.426  12169.390  0.500  1.178607  58.690795  18.059576  9.201571
  12172.504  12172.490  0.500  1.177913  58.644833  18.057961  9.212051
  12175.621  12175.610  0.500  1.177347  58.599079  18.054083  9.222630
  12178.779  12178.750  0.500  1.177146  58.555722  18.044347  9.227053
  12181.919  12181.900  0.500  1.176727  58.508210  18.037275  9.225933
  12185.099  12185.080  0.500  1.176458  58.463678  18.028387  9.223292
  12188.294  12188.270  0.500  1.176104  58.418574  18.020853  9.218519
  12191.517  12191.490  0.500  1.175915  58.374698  18.010722  9.215668
  12194.728  12194.720  0.500  1.175547  58.331127  18.003910  9.215574
  12197.987  12197.970  0.500  1.174899  58.285465  18.001473  9.218935
  12201.266  12201.250  0.500  1.174203  58.019692  17.931862  9.187627
  12204.535  12204.540  0.500  1.173406  58.212716  18.005878  9.228947
  12207.877  12207.850  0.500  1.172228  58.167764  18.013176  9.231124
  12211.194  12211.170  0.500  1.170998  58.119192  18.020289  9.233348
  12214.533  12214.520  0.500  1.169605  58.076770  18.032227  9.235598
  12217.919  12217.890  0.500  1.168142  58.030434  18.044231  9.239664
  12221.308  12221.270  0.500  1.166518  57.988528  18.060495  9.245514
  12224.678  12224.680  0.500  1.164882  57.945120  18.076525  9.253130
  12228.116  12228.100  0.500  1.163186  57.901436  18.093555  9.264154
  12231.575  12231.550  0.500  1.161479  57.845267  18.106896  9.276255
  12235.023  12235.010  0.500  1.159833  56.678085  17.770765  9.113864
  12238.505  12238.490  0.500  1.158004  57.613999  18.097277  9.292030
  12242.023  12241.990  0.500  1.156278  57.676037  18.148069  9.330570
  12245.516  12245.510  0.500  1.154612  57.645283  18.168636  9.352167
  12249.076  12249.050  0.500  1.153030  57.600803  18.183349  9.369560
  12252.613  12252.600  0.500  1.151327  57.553392  18.199346  9.384291
  12256.197  12256.180  0.500  1.149987  57.371605  18.166194  9.374088
  12259.803  12259.780  0.500  1.148438  57.448961  18.218896  9.404327
  12263.405  12263.390  0.500  1.147055  56.936658  18.081419  9.336991
  12267.029  12267.020  0.500  1.145665  57.089950  18.155308  9.377837
  12270.700  12270.680  0.500  1.144381  57.155712  18.199580  9.404591
  12274.341  12274.350  0.500  1.143086  57.257777  18.255699  9.437009
  12278.063  12278.040  0.500  1.141995  57.210364  18.260490  9.444532
  12281.761  12281.750  0.500  1.140925  57.150472  18.260902  9.449308
  12285.488  12285.480  0.500  1.139863  57.036240  18.243772  9.444067
  12289.243  12289.220  0.500  1.139055  56.819119  18.189014  9.418611
  12293.000  12292.990  0.500  1.137949  56.530981  18.116797  9.379688
  12296.787  12296.780  0.500  1.137251  56.904254  18.249160  9.449172
  12300.602  12300.580  0.500  1.136158  56.794321  18.233828  9.442860
  12304.419  12304.410  0.500  1.135104  56.823037  18.262273  9.459827
  12308.258  12308.250  0.500  1.134351  56.774853  18.260536  9.462198
  12312.120  12312.110  0.500  1.133079  56.717493  18.265316  9.468021
  12315.991  12315.990  0.500  1.132030  56.664300  18.267334  9.471457
  12319.904  12319.890  0.500  1.130759  56.200812  18.140948  9.412087
  12323.819  12323.810  0.500  1.129459  56.337926  18.208867  9.456013
  12327.770  12327.750  0.500  1.128251  56.477109  18.275917  9.500259
  12331.711  12331.710  0.500  1.126692  56.440469  18.292560  9.518539
  12335.707  12335.680  0.500  1.125143  56.392006  18.305179  9.535237
  12339.705  12339.680  0.500  1.123667  56.343178  18.316342  9.550075
  12343.713  12343.690  0.500  1.122175  56.292184  18.327104  9.564871
  12347.777  12347.730  0.500  1.120445  56.228962  18.338216  9.576835
  12351.777  12351.780  0.500  1.118708  56.177800  18.353372  9.587096
  12355.879  12355.850  0.500  1.117088  56.126013  18.366187  9.596308
  12359.944  12359.940  0.500  1.115439  56.085824  18.383333  9.609862
  12364.065  12364.050  0.500  1.113734  55.962471  18.374200  9.607487
  12368.216  12368.180  0.500  1.111960  55.982928  18.413556  9.629698
  12372.336  12372.330  0.500  1.110281  55.884814  18.412164  9.632869
  12376.526  12376.490  0.500  1.108645  55.876619  18.439613  9.648756
  12380.691  12380.680  0.500  1.107096  55.802493  18.443686  9.656094
  12384.907  12384.880  0.500  1.105377  55.390019  18.338870  9.604871
  12389.118  12389.110  0.500  1.104004  55.726951  18.475763  9.679974
  12393.366  12393.350  0.500  1.102467  55.662481  18.482773  9.690226
  12397.651  12397.610  0.500  1.100995  55.608441  18.492028  9.698540
  12401.911  12401.890  0.500  1.099416  55.546259  18.500553  9.706887
  12406.215  12406.190  0.500  1.098220  55.488459  18.503412  9.717260
  12410.542  12410.510  0.500  1.096930  55.411206  18.501508  9.722052
  12414.878  12414.850  0.500  1.095480  55.373067  18.515586  9.735398
  12419.238  12419.210  0.500  1.094098  55.313571  18.521273  9.746382
  12423.588  12423.590  0.500  1.092923  55.241590  18.518922  9.753662
  12428.021  12427.980  0.500  1.091404  55.194047  18.531110  9.767107
  12432.404  12432.400  0.500  1.090135  55.125849  18.531719  9.775352
  12436.864  12436.830  0.500  1.088668  54.704052  18.416919  9.720767
  12441.314  12441.280  0.500  1.087211  55.046996  18.559394  9.802323
  12445.780  12445.750  0.500  1.085821  54.983460  18.563766  9.813141
  12450.270  12450.240  0.500  1.084235  54.911607  18.568937  9.820880
  12454.764  12454.750  0.500  1.082626  54.797071  18.560040  9.822234
  12459.308  12459.280  0.500  1.081134  54.807769  18.591385  9.843745
  12463.862  12463.830  0.500  1.079459  54.744536  18.601061  9.852528
  12468.446  12468.400  0.500  1.077926  54.651821  18.598045  9.857314
  12473.021  12472.980  0.500  1.076098  54.627680  18.623853  9.876135
  12477.612  12477.590  0.500  1.074465  54.558966  18.630825  9.882696
  12482.247  12482.210  0.500  1.072593  54.486598  18.640961  9.890863
  12486.873  12486.860  0.500  1.070874  54.163206  18.562215  9.854355
  12491.556  12491.520  0.500  1.069057  54.406461  18.679488  9.922827
  12496.229  12496.200  0.500  1.067257  54.339139  18.689976  9.931546
  12500.933  12500.900  0.500  1.065508  54.275857  18.700904  9.943401
  12505.655  12505.620  0.500  1.063779  54.208283  18.709941  9.954272
  12510.400  12510.360  0.500  1.062016  54.151298  18.723240  9.968315
  12515.142  12515.110  0.500  1.060206  54.090297  18.736030  9.980519
  12519.936  12519.890  0.500  1.058537  54.028046  18.745742  9.994622
  12524.719  12524.690  0.500  1.056879  53.963547  18.754432  10.006885
  12529.548  12529.500  0.500  1.055075  53.898836  18.765768  10.021474
  12534.353  12534.330  0.500  1.053566  53.832058  18.770813  10.031527
  12539.264  12539.190  0.500  1.051842  53.709216  18.760293  10.033810
  12544.056  12544.060  0.500  1.050089  53.730952  18.800813  10.061704
  12548.982  12548.950  0.500  1.048600  53.664144  18.805417  10.071756
  12553.884  12553.860  0.500  1.047026  53.595664  18.811009  10.081938
  12558.811  12558.790  0.500  1.045402  53.524396  18.816531  10.092121
  12563.783  12563.730  0.500  1.043729  53.469915  18.828857  10.106170
  12568.738  12568.700  0.500  1.042122  53.402665  18.835409  10.115215
  12573.732  12573.690  0.500  1.040478  53.340826  18.844561  10.125588
  12578.723  12578.690  0.500  1.038948  53.266734  18.847201  10.132433
  12583.745  12583.720  0.500  1.037187  53.206636  18.859112  10.143408
  12588.813  12588.760  0.500  1.035635  53.145145  18.866581  10.153190
  12593.844  12593.820  0.500  1.033922  53.078982  18.875386  10.164665
  12598.948  12598.900  0.500  1.032120  53.013294  18.886036  10.174077
  12604.042  12604.000  0.500  1.030356  52.944894  18.894974  10.183974
  12609.148  12609.120  0.500  1.028694  52.883288  18.904372  10.196383
  12614.320  12614.260  0.500  1.026939  52.820107  18.914955  10.206871
  12619.433  12619.420  0.500  1.025234  52.756475  18.924408  10.219252
  12624.663  12624.600  0.500  1.023371  52.675969  18.930755  10.230239
  12629.820  12629.790  0.500  1.021463  52.597991  18.938850  10.240828
  12635.058  12635.010  0.500  1.019500  52.488712  18.936637  10.248426
  12640.265  12640.240  0.500  1.017606  52.487561  18.972107  10.276747
  12645.547  12645.490  0.500  1.015786  52.430838  18.986130  10.291991
  12650.798  12650.760  0.500  1.014005  52.357844  18.993492  10.302219
  12656.088  12656.050  0.500  1.012148  52.304001  19.009238  10.317998
  12661.397  12661.360  0.500  1.010272  52.234425  19.019591  10.331213
  12666.710  12666.690  0.500  1.008474  52.162714  19.027661  10.344768
  12672.084  12672.040  0.500  1.006499  52.100582  19.042563  10.358798
  12677.435  12677.410  0.500  1.004745  52.032087  19.050921  10.373218
  12682.839  12682.790  0.500  1.002833  51.956491  19.059654  10.383035
  12688.241  12688.200  0.500  1.001011  51.894574  19.071661  10.397725
  12693.647  12693.620  0.500  0.999129  51.826845  19.082640  10.411617
  12699.115  12699.070  0.500  0.997222  51.756621  19.093163  10.422673
  12704.566  12704.530  0.500  0.995502  51.691359  19.101923  10.433588
  12710.057  12710.010  0.500  0.993585  51.617363  19.111179  10.447545
  12715.546  12715.510  0.500  0.992059  51.627564  19.144145  10.473021
  12721.082  12721.030  0.500  0.989951  51.550325  19.155828  10.482339
  12726.601  12726.570  0.500  0.988157  51.477822  19.163238  10.494544
  12732.168  12732.120  0.500  0.986362  51.429754  19.179756  10.509019
  12737.747  12737.700  0.500  0.984593  50.736264  18.954631  10.392260
  12743.338  12743.300  0.500  0.982753  51.303421  19.201803  10.535083
  12748.962  12748.910  0.500  0.980813  51.227929  19.210786  10.547570
  12754.584  12754.550  0.500  0.979080  51.164973  19.220459  10.560267
  12760.261  12760.200  0.500  0.977087  51.089144  19.230263  10.573305
  12765.915  12765.870  0.500  0.975246  51.021061  19.240024  10.588353
  12771.609  12771.560  0.500  0.973398  50.954712  19.250548  10.601295
