# XDI/1.0 BlueSky/1.10.0 BMM/2023-1.0-py310-tiled
# Beamline.name: BMM (06BM) -- Beamline for Materials Measurement (NIST)
# Beamline.xray_source: NSLS-II three-pole wiggler
# Beamline.collimation: paraboloid mirror, 5 nm Rh on 30 nm Pt
# Beamline.focusing: not in use
# Beamline.harmonic_rejection: flat mirror, Pt stripe, pitch = 7.0 mrad relative to beam
# Beamline.software: Bluesky 1.10.0, Ophyd 1.7.0, DataBroker 2.0.0b13, Python 3.10.8, 2023-1.0-py310-tiled
# Detector.I0: 10 cm N2
# Detector.I1: 25 cm N2
# Detector.I2: 25 cm N2
# Element.symbol: Pt
# Element.edge: L1
# Element.reference: Pt
# Element.reference_material: Pt foil
# Facility.name: NSLS-II
# Facility.energy: 3.0
# Facility.current: 399.7
# Facility.mode: top-off
# Facility.GUP: 301027
# Facility.SAF: 310583
# Facility.cycle: 2023-2
# Mono.name: Si(111)
# Mono.d_spacing: 3.1351860
# Mono.encoder_resolution: 0.0000050 deg/ct
# Mono.angle_offset: 16.0754326 deg
# Mono.scan_mode: pseudo channel cut
# Mono.scan_type: step
# Mono.direction: forward in energy
# Sample.name: Pt(NH3)4Cl2.xH2O
# Sample.prep: powder on tape
# Sample.x: 119.711 mm
# Sample.y: 114.376 mm
# Sample.SDD_position: 205.000 mm
# Scan.experimenters: Bruce Ravel
# Scan.edge_energy: 13880.5
# Scan.start_time: 2023-06-27T19:35:29
# Scan.end_time: 2023-06-27T19:43:24
# Scan.transient_id: 85266
# Scan.uid: c1ef86cb-d3c3-4668-b9ef-ec6bba6c039c
# Scan.plot_hint: ln(I0/It)  --  ln($5/$6)
# Column.1: energy eV
# Column.2: requested_energy eV
# Column.3: measurement_time seconds
# Column.4: xmu 
# Column.5: I0 nA
# Column.6: It nA
# Column.7: Ir nA
# ///////////
# sample courtesy Simon Bare and Shelly Kelly
# -----------
# energy  requested_energy  measurement_time  xmu  I0  It  Ir
  13680.436  13680.500  0.500  0.498839  38.780885  23.549128  5.410824
  13690.512  13690.500  0.500  0.497070  38.733096  23.561756  5.416628
  13700.547  13700.500  0.500  0.495390  38.675996  23.566564  5.428364
  13710.555  13710.500  0.500  0.493695  38.599302  23.559736  5.445618
  13720.562  13720.500  0.500  0.491922  38.519183  23.552561  5.479918
  13730.591  13730.500  0.500  0.490256  38.451662  23.550466  5.511435
  13740.578  13740.500  0.500  0.488477  38.355057  23.533135  5.518318
  13750.571  13750.500  0.500  0.486592  38.277071  23.529606  5.517694
  13760.571  13760.500  0.500  0.484695  38.200636  23.527207  5.519294
  13770.577  13770.500  0.500  0.482670  38.097609  23.511306  5.521330
  13780.614  13780.500  0.500  0.480768  38.030517  23.514579  5.531003
  13790.467  13790.500  0.500  0.478810  37.951462  23.511696  5.539185
  13800.476  13800.500  0.500  0.477043  37.854562  23.493141  5.552293
  13810.499  13810.500  0.500  0.475115  37.778820  23.491382  5.571687
  13820.528  13820.500  0.500  0.473540  37.704345  23.482039  5.586708
  13830.522  13830.500  0.500  0.472396  37.578734  23.430594  5.590318
  13840.514  13840.500  0.500  0.471362  37.518457  23.417214  5.600371
  13850.546  13850.500  0.500  0.470722  37.427100  23.375137  5.591864
  13852.457  13852.500  0.500  0.470680  37.391818  23.354088  5.586863
  13854.452  13854.500  0.500  0.470654  37.371158  23.341790  5.582645
  13856.465  13856.500  0.500  0.470688  37.337582  23.320020  5.575450
  13858.470  13858.500  0.500  0.470883  37.336060  23.314524  5.571974
  13860.483  13860.500  0.500  0.471043  37.330764  23.307496  5.566713
  13862.456  13862.500  0.500  0.471367  37.317347  23.291559  5.560084
  13864.446  13864.500  0.500  0.471568  37.291495  23.270760  5.549552
  13866.461  13866.500  0.500  0.472022  37.281646  23.254049  5.540746
  13868.477  13868.500  0.500  0.472676  37.250652  23.219527  5.523667
  13870.469  13870.500  0.500  0.473686  37.226612  23.181109  5.503262
  13870.746  13870.800  0.500  0.473760  37.221925  23.176470  5.501273
  13871.032  13871.100  0.500  0.473895  37.226724  23.176335  5.498474
  13871.326  13871.400  0.500  0.474132  37.227183  23.171131  5.497352
  13871.637  13871.700  0.500  0.474341  37.212249  23.156992  5.491230
  13871.931  13872.000  0.500  0.474471  37.202212  23.147740  5.485983
  13872.242  13872.300  0.500  0.474669  37.195399  23.138909  5.481616
  13872.536  13872.600  0.500  0.474809  37.293288  23.196566  5.493019
  13872.831  13872.900  0.500  0.475092  37.285402  23.185112  5.488052
  13873.133  13873.200  0.500  0.475221  37.271802  23.173647  5.481522
  13873.444  13873.500  0.500  0.475601  37.274278  23.166393  5.477927
  13873.747  13873.800  0.500  0.475885  37.257191  23.149203  5.471498
  13874.058  13874.100  0.500  0.476190  37.242603  23.133073  5.464510
  13874.361  13874.400  0.500  0.476446  37.260040  23.137978  5.462262
  13874.655  13874.700  0.500  0.476604  37.219883  23.109391  5.450656
  13874.966  13875.000  0.500  0.477086  37.240189  23.110854  5.449010
  13875.278  13875.300  0.500  0.477391  37.236096  23.101275  5.441806
  13875.572  13875.600  0.500  0.477736  37.234431  23.092278  5.436717
  13875.892  13875.900  0.500  0.478116  37.230010  23.080755  5.429425
  13876.169  13876.200  0.500  0.478497  37.225363  23.069081  5.421876
  13876.480  13876.500  0.500  0.478922  37.220169  23.056056  5.414266
  13876.792  13876.800  0.500  0.479493  37.214015  23.039092  5.405550
  13877.086  13877.100  0.500  0.479884  37.210844  23.028125  5.398143
  13877.389  13877.400  0.500  0.480479  37.191977  23.002754  5.385789
  13877.700  13877.700  0.500  0.481054  37.190564  22.988665  5.376136
  13877.969  13878.000  0.500  0.481690  37.201315  22.980690  5.367972
  13878.298  13878.300  0.500  0.482255  37.172485  22.949915  5.352479
  13878.584  13878.600  0.500  0.482995  37.171047  22.932032  5.342308
  13878.895  13878.900  0.500  0.483697  37.166047  22.912873  5.329554
  13879.198  13879.200  0.500  0.484463  37.155523  22.888835  5.316401
  13879.476  13879.500  0.500  0.485325  37.143736  22.861871  5.302588
  13879.787  13879.800  0.500  0.486273  37.144129  22.840434  5.288673
  13880.098  13880.100  0.500  0.487191  37.144742  22.819863  5.273617
  13880.368  13880.400  0.500  0.487935  37.124836  22.790672  5.258399
  13880.687  13880.700  0.500  0.489107  37.101420  22.749624  5.237412
  13880.974  13881.000  0.500  0.490347  37.096330  22.718317  5.220887
  13881.277  13881.300  0.500  0.491401  37.082003  22.685613  5.201836
  13881.588  13881.600  0.500  0.492732  37.065589  22.645400  5.178937
  13881.857  13881.900  0.500  0.494014  37.055011  22.609931  5.160658
  13882.177  13882.200  0.500  0.495717  37.057565  22.573018  5.139472
  13882.472  13882.500  0.500  0.497095  37.050691  22.537747  5.118074
  13882.775  13882.800  0.500  0.498718  37.053276  22.502779  5.096816
  13883.078  13883.100  0.500  0.500503  37.047901  22.459395  5.075387
  13883.381  13883.400  0.500  0.502324  37.045234  22.416906  5.052501
  13883.693  13883.700  0.500  0.504406  37.051185  22.373887  5.029303
  13883.996  13884.000  0.500  0.506270  37.033642  22.321654  5.003987
  13884.308  13884.300  0.500  0.508442  37.058304  22.288041  4.982262
  13884.594  13884.600  0.500  0.510365  37.020369  22.222454  4.954360
  13884.897  13884.900  0.500  0.512585  37.016410  22.170798  4.929909
  13885.200  13885.200  0.500  0.514553  37.033449  22.137396  4.908394
  13885.495  13885.500  0.500  0.516837  36.982681  22.056614  4.876957
  13885.807  13885.800  0.500  0.518998  36.987333  22.011765  4.853798
  13886.110  13886.100  0.500  0.520882  36.983678  21.968161  4.832489
  13886.405  13886.400  0.500  0.523035  36.969634  21.912592  4.806243
  13886.708  13886.700  0.500  0.525019  36.978541  21.874434  4.785466
  13887.020  13887.000  0.500  0.526673  36.956058  21.825012  4.759938
  13887.289  13887.300  0.500  0.528380  36.964087  21.792512  4.742695
  13887.601  13887.600  0.500  0.530169  36.954911  21.748176  4.719441
  13887.896  13887.900  0.500  0.531645  36.926185  21.699218  4.695563
  13888.191  13888.200  0.500  0.533229  36.910193  21.655494  4.671573
  13888.486  13888.500  0.500  0.534685  36.912438  21.625286  4.652514
  13888.781  13888.800  0.500  0.536131  36.906348  21.590476  4.631414
  13889.076  13889.100  0.500  0.537586  36.896760  21.553489  4.611798
  13889.379  13889.400  0.500  0.538949  36.896734  21.524111  4.590757
  13889.682  13889.700  0.500  0.540624  36.907060  21.494101  4.570022
  13889.977  13890.000  0.500  0.542190  36.878400  21.443819  4.545052
  13890.298  13890.300  0.500  0.543804  36.885364  21.413273  4.522985
  13890.593  13890.600  0.500  0.545542  36.857358  21.359860  4.497375
  13890.905  13890.900  0.500  0.547209  36.847222  21.318408  4.473772
  13891.183  13891.200  0.500  0.548845  36.856124  21.288699  4.454020
  13891.511  13891.500  0.500  0.550792  36.836342  21.235892  4.424432
  13891.798  13891.800  0.500  0.552505  36.821106  21.190774  4.401173
  13892.118  13892.100  0.500  0.554495  36.818280  21.147025  4.376449
  13892.405  13892.400  0.500  0.556585  36.810955  21.098678  4.351747
  13892.709  13892.700  0.500  0.558531  36.812986  21.058821  4.329106
  13892.995  13893.000  0.500  0.560379  36.794279  21.009254  4.305489
  13893.324  13893.300  0.500  0.562475  36.779983  20.957137  4.280413
  13893.602  13893.600  0.500  0.564474  36.771529  20.910473  4.257698
  13893.898  13893.900  0.500  0.566402  36.756918  20.861899  4.234733
  13894.201  13894.200  0.500  0.568431  36.754682  20.818354  4.213485
  13894.513  13894.500  0.500  0.570353  36.748976  20.775142  4.192728
  13894.800  13894.800  0.500  0.572240  36.746015  20.734310  4.174627
  13895.095  13895.100  0.500  0.573949  36.748606  20.700361  4.158320
  13895.399  13895.400  0.500  0.575624  36.741932  20.661960  4.142023
  13895.677  13895.700  0.500  0.577198  36.727350  20.621288  4.125359
  13896.006  13896.000  0.500  0.578851  36.712616  20.578962  4.109949
  13896.276  13896.300  0.500  0.580183  36.701904  20.545584  4.095579
  13896.605  13896.600  0.500  0.581579  36.713542  20.523420  4.086434
  13896.875  13896.900  0.500  0.582705  36.707973  20.497208  4.075891
  13897.187  13897.200  0.500  0.583801  36.667745  20.452331  4.062267
  13897.499  13897.500  0.500  0.584769  36.703824  20.452631  4.058670
  13897.795  13897.800  0.500  0.585788  36.680540  20.418846  4.050385
  13898.098  13898.100  0.500  0.586646  36.687509  20.405217  4.045217
  13898.385  13898.400  0.500  0.587362  36.693244  20.393804  4.040698
  13898.714  13898.700  0.500  0.588020  36.683891  20.375179  4.036145
  13899.001  13899.000  0.500  0.588484  36.693256  20.370923  4.035490
  13899.314  13899.300  0.500  0.589066  36.702459  20.364193  4.033713
  13899.592  13899.600  0.500  0.589424  36.686645  20.348126  4.031056
  13899.921  13899.900  0.500  0.589984  36.695720  20.341756  4.030424
  13900.208  13900.200  0.500  0.590497  36.691087  20.328758  4.030356
  13900.521  13900.500  0.500  0.590755  36.691257  20.323614  4.030321
  13900.816  13900.800  0.500  0.591331  36.693612  20.313206  4.030972
  13901.112  13901.100  0.500  0.591620  36.689138  20.304878  4.031988
  13901.415  13901.400  0.500  0.592077  36.683492  20.292474  4.033196
  13901.711  13901.700  0.500  0.592594  36.682602  20.281490  4.034191
  13902.006  13902.000  0.500  0.592899  36.703573  20.286902  4.038571
  13902.302  13902.300  0.500  0.593248  36.675761  20.264459  4.037573
  13902.597  13902.600  0.500  0.593638  36.662214  20.249067  4.037820
  13902.901  13902.900  0.500  0.594150  36.659610  20.237264  4.041623
  13903.189  13903.200  0.500  0.594295  36.655391  20.231990  4.043701
  13903.493  13903.500  0.500  0.594778  36.666716  20.228487  4.047123
  13903.788  13903.800  0.500  0.595112  36.632773  20.203010  4.048485
  13904.067  13904.100  0.500  0.595333  36.631796  20.197992  4.051421
  13904.388  13904.400  0.500  0.595564  36.627810  20.191133  4.055862
  13904.675  13904.700  0.500  0.595860  36.627284  20.184873  4.060255
  13905.004  13905.000  0.500  0.595904  36.651097  20.197116  4.067374
  13905.292  13905.300  0.500  0.596092  36.665400  20.201182  4.072627
  13905.486  13905.500  0.500  0.596175  36.660469  20.196799  4.075828
  13906.516  13906.490  0.500  0.596307  36.671147  20.200018  4.089804
  13907.530  13907.490  0.500  0.595972  36.666338  20.204139  4.104363
  13908.536  13908.510  0.500  0.595299  36.636312  20.201177  4.112885
  13909.601  13909.560  0.500  0.594242  36.617560  20.212192  4.121480
  13910.640  13910.620  0.500  0.593368  36.603528  20.222110  4.126348
  13911.706  13911.700  0.500  0.592329  36.599873  20.241107  4.128944
  13912.796  13912.800  0.500  0.591358  36.615154  20.269239  4.131978
  13913.938  13913.920  0.500  0.590118  36.609247  20.291117  4.130252
  13915.080  13915.060  0.500  0.588476  36.616434  20.328453  4.129905
  13916.256  13916.210  0.500  0.586608  36.581389  20.346953  4.122057
  13917.424  13917.390  0.500  0.584325  36.580247  20.392833  4.118970
  13918.600  13918.580  0.500  0.581895  36.553744  20.427625  4.113412
  13919.810  13919.800  0.500  0.579295  36.526730  20.465685  4.106562
  13921.029  13921.030  0.500  0.576964  36.518447  20.508779  4.102467
  13922.291  13922.280  0.500  0.574990  36.513265  20.546387  4.102915
  13923.553  13923.550  0.500  0.573239  36.517265  20.584664  4.104303
  13924.865  13924.840  0.500  0.571712  36.514948  20.614816  4.107973
  13926.162  13926.150  0.500  0.570637  36.491355  20.623643  4.115535
  13927.509  13927.480  0.500  0.569928  36.497685  20.641854  4.129800
  13928.823  13928.830  0.500  0.569406  36.469780  20.636853  4.145207
  13930.204  13930.200  0.500  0.569038  36.472551  20.646015  4.164446
  13931.595  13931.580  0.500  0.569026  36.468146  20.643762  4.182020
  13933.019  13932.990  0.500  0.568743  36.466804  20.648838  4.198946
  13934.436  13934.410  0.500  0.569056  36.464495  20.641076  4.209003
  13935.887  13935.850  0.500  0.569171  36.463027  20.637867  4.215438
  13937.321  13937.310  0.500  0.569618  36.426811  20.608168  4.213656
  13938.806  13938.790  0.500  0.570081  36.430006  20.600433  4.213170
  13940.291  13940.290  0.500  0.570588  36.439089  20.595125  4.213981
  13941.820  13941.810  0.500  0.571084  36.428573  20.578969  4.210307
  13943.357  13943.350  0.500  0.571340  36.397326  20.556040  4.208074
  13944.937  13944.910  0.500  0.571642  36.383536  20.542048  4.205770
  13946.475  13946.480  0.500  0.571939  36.356574  20.520748  4.203480
  13948.081  13948.080  0.500  0.571723  36.346626  20.519552  4.203112
  13949.688  13949.690  0.500  0.571935  36.331294  20.506558  4.200112
  13951.346  13951.330  0.500  0.571964  36.312660  20.495447  4.197087
  13952.996  13952.980  0.500  0.572197  36.328687  20.499710  4.198529
  13954.671  13954.650  0.500  0.572523  36.290174  20.471312  4.191755
  13956.331  13956.340  0.500  0.572857  36.270739  20.453513  4.187611
  13958.050  13958.050  0.500  0.573292  36.259261  20.438146  4.182483
  13959.778  13959.780  0.500  0.573815  36.269761  20.433377  4.176967
  13961.549  13961.530  0.500  0.574379  36.214783  20.390899  4.166269
  13963.304  13963.290  0.500  0.574664  36.188786  20.370458  4.157550
  13965.093  13965.080  0.500  0.574970  36.180610  20.359610  4.154047
  13966.857  13966.880  0.500  0.574869  36.159122  20.349587  4.150188
  13968.681  13968.710  0.500  0.574788  36.112850  20.325179  4.146338
  13970.539  13970.550  0.500  0.574198  36.014705  20.281904  4.141770
  13972.381  13972.410  0.500  0.573287  35.358501  19.930504  4.075889
  13974.233  13974.290  0.500  0.572051  33.600926  18.963248  3.885163
  13976.152  13976.190  0.500  0.571806  35.328231  19.942973  4.093800
  13978.090  13978.110  0.500  0.570176  36.072133  20.396124  4.193279
  13980.028  13980.050  0.500  0.568810  36.111543  20.446312  4.211127
  13981.975  13982.010  0.500  0.567644  36.091601  20.458871  4.219648
  13983.931  13983.980  0.500  0.566496  36.092423  20.482830  4.227900
  13985.948  13985.980  0.500  0.565307  36.067243  20.492898  4.232713
  13987.965  13987.990  0.500  0.564479  36.047207  20.498480  4.235323
  13990.009  13990.020  0.500  0.563473  36.042037  20.516153  4.239230
  13992.455  13992.080  0.500  0.562646  36.029628  20.526072  4.241278
  13994.063  13994.150  0.500  0.562235  36.006126  20.521103  4.241643
  13996.519  13996.240  0.500  0.561524  36.089910  20.583499  4.254625
  13998.325  13998.350  0.500  0.560818  36.075955  20.590065  4.255901
  14000.500  14000.480  0.500  0.560307  36.046683  20.583875  4.259684
  14002.590  14002.620  0.500  0.559766  36.041965  20.592310  4.264864
  14004.784  14004.790  0.500  0.559296  36.022935  20.591108  4.268942
  14006.987  14006.980  0.500  0.558816  36.001698  20.588860  4.274669
  14009.190  14009.180  0.500  0.558288  35.988797  20.592353  4.277702
  14011.386  14011.400  0.500  0.557841  35.955820  20.582673  4.279175
  14013.642  14013.650  0.500  0.557382  35.945087  20.585984  4.282101
  14015.890  14015.910  0.500  0.556959  35.931419  20.586863  4.280728
  14018.191  14018.190  0.500  0.556596  35.928441  20.592631  4.281219
  14020.484  14020.490  0.500  0.556075  35.881906  20.576678  4.275240
  14022.838  14022.810  0.500  0.555935  35.871214  20.573424  4.269753
  14025.166  14025.150  0.500  0.555674  35.846036  20.564342  4.264007
  14027.522  14027.500  0.500  0.555442  35.818883  20.553539  4.259363
  14029.878  14029.880  0.500  0.555225  35.812761  20.554483  4.259423
  14032.269  14032.270  0.500  0.554939  35.790493  20.547590  4.258094
  14034.679  14034.690  0.500  0.555081  35.776899  20.536859  4.260315
  14037.115  14037.120  0.500  0.554855  35.750527  20.526356  4.263505
  14039.586  14039.570  0.500  0.554628  35.722067  20.514685  4.265357
  14042.075  14042.050  0.500  0.554458  35.719234  20.516529  4.273806
  14044.540  14044.540  0.500  0.554319  35.674221  20.493527  4.275469
  14047.048  14047.050  0.500  0.554058  35.660259  20.490853  4.281884
  14049.549  14049.570  0.500  0.553672  35.643450  20.489111  4.289071
  14052.103  14052.120  0.500  0.553140  35.615542  20.483959  4.295125
  14054.700  14054.690  0.500  0.552666  35.597141  20.483091  4.302635
  14057.281  14057.270  0.500  0.552124  35.569625  20.478347  4.306934
  14059.881  14059.880  0.500  0.551602  35.536191  20.469773  4.310227
  14062.499  14062.500  0.500  0.550891  35.499168  20.463003  4.312368
  14065.143  14065.150  0.500  0.550312  35.468043  20.456894  4.314172
  14067.806  14067.810  0.500  0.549610  35.402069  20.433194  4.315496
  14070.488  14070.490  0.500  0.548924  35.235627  20.351083  4.304559
  14073.204  14073.190  0.500  0.548392  33.863383  19.568924  4.148915
  14075.922  14075.910  0.500  0.547890  34.222360  19.786286  4.201701
  14078.659  14078.650  0.500  0.546968  35.525178  20.558478  4.372294
  14081.370  14081.400  0.500  0.546206  35.495436  20.556934  4.376021
  14084.169  14084.180  0.500  0.545547  35.342674  20.481947  4.360659
  14086.970  14086.970  0.500  0.544728  35.438915  20.554561  4.373189
  14089.814  14089.790  0.500  0.544006  35.400026  20.546829  4.368901
  14092.652  14092.620  0.500  0.543284  35.366819  20.542385  4.364287
  14095.464  14095.470  0.500  0.542664  35.365751  20.554495  4.366836
  14098.330  14098.350  0.500  0.541877  35.310611  20.538616  4.362858
  14101.249  14101.240  0.500  0.541181  35.261315  20.524218  4.360515
  14104.160  14104.150  0.500  0.540424  35.236139  20.525087  4.362093
  14107.090  14107.070  0.500  0.539714  35.171814  20.502182  4.358544
  14110.030  14110.020  0.500  0.539002  35.069469  20.457088  4.348864
  14112.989  14112.990  0.500  0.538173  35.127345  20.507835  4.361624
  14115.958  14115.970  0.500  0.537504  35.042847  20.472184  4.357814
  14118.988  14118.980  0.500  0.536671  34.545323  20.198345  4.303130
  14122.012  14122.000  0.500  0.536666  33.203177  19.413708  4.142522
  14125.045  14125.050  0.500  0.535633  35.185435  20.593990  4.401492
  14128.115  14128.110  0.500  0.534962  35.129844  20.575259  4.404665
  14131.177  14131.190  0.500  0.534454  35.048333  20.537947  4.405593
  14134.311  14134.290  0.500  0.534046  35.045576  20.544705  4.416422
  14137.428  14137.410  0.500  0.533398  35.021220  20.543729  4.423018
  14140.573  14140.550  0.500  0.532888  35.020773  20.553964  4.431414
  14143.693  14143.700  0.500  0.532442  34.989056  20.544494  4.435223
  14146.885  14146.880  0.500  0.531727  34.952663  20.537822  4.437380
  14150.087  14150.070  0.500  0.531339  34.928062  20.531314  4.441375
  14153.281  14153.290  0.500  0.530706  34.885748  20.519440  4.441765
  14156.521  14156.520  0.500  0.530063  34.826198  20.497590  4.438084
  14159.789  14159.770  0.500  0.529573  34.704494  20.435965  4.423892
  14163.084  14163.050  0.500  0.528932  34.648555  20.416102  4.418690
  14166.346  14166.340  0.500  0.528182  33.342630  19.661358  4.254340
  14169.644  14169.650  0.500  0.527761  34.088925  20.109879  4.350986
  14172.988  14172.970  0.500  0.526698  34.834827  20.571775  4.455048
  14176.334  14176.320  0.500  0.526049  34.801929  20.565682  4.458089
  14179.689  14179.690  0.500  0.525332  34.789268  20.572948  4.465498
  14183.082  14183.070  0.500  0.524577  34.754861  20.568126  4.467837
  14186.511  14186.480  0.500  0.523933  34.709590  20.554563  4.469488
  14189.925  14189.900  0.500  0.523056  34.675803  20.552572  4.471024
  14193.340  14193.350  0.500  0.522422  34.645149  20.547434  4.473334
  14196.828  14196.810  0.500  0.521446  34.618811  20.551849  4.476993
  14200.308  14200.290  0.500  0.520709  34.587360  20.548328  4.482414
  14203.798  14203.790  0.500  0.520076  34.560515  20.545367  4.488940
  14207.300  14207.310  0.500  0.519120  34.533500  20.548948  4.497657
  14210.873  14210.850  0.500  0.518528  34.505387  20.544385  4.510508
  14214.422  14214.400  0.500  0.517537  34.473998  20.546040  4.519540
  14217.973  14217.980  0.500  0.516663  34.446140  20.547392  4.529858
  14221.588  14221.580  0.500  0.515873  34.431041  20.554610  4.540943
  14225.213  14225.190  0.500  0.515289  34.386552  20.540055  4.546620
  14228.831  14228.820  0.500  0.514560  34.375054  20.548155  4.552983
  14232.478  14232.480  0.500  0.513550  34.333695  20.544176  4.554546
  14236.162  14236.150  0.500  0.512895  34.326900  20.553568  4.557451
  14239.856  14239.840  0.500  0.512087  34.268768  20.535338  4.551871
  14243.571  14243.550  0.500  0.511406  34.235200  20.529204  4.551400
  14247.296  14247.280  0.500  0.510503  34.209517  20.532338  4.550715
  14251.050  14251.020  0.500  0.509918  34.171850  20.521727  4.550826
  14254.823  14254.790  0.500  0.509181  34.145726  20.521149  4.553688
  14258.599  14258.580  0.500  0.508539  34.102350  20.508256  4.556298
  14262.403  14262.380  0.500  0.507658  34.066512  20.504756  4.560659
  14266.245  14266.210  0.500  0.507099  34.000896  20.476713  4.560283
  14270.080  14270.050  0.500  0.506150  33.235089  20.034511  4.465505
  14273.908  14273.910  0.500  0.506194  33.347027  20.101097  4.482626
  14277.810  14277.790  0.500  0.505020  34.019025  20.530255  4.580592
  14281.714  14281.690  0.500  0.504101  33.978167  20.524456  4.582978
  14285.629  14285.610  0.500  0.503392  33.941836  20.517057  4.583237
  14289.573  14289.550  0.500  0.502722  33.917664  20.516182  4.588337
  14293.536  14293.510  0.500  0.501970  33.897615  20.519477  4.595979
  14297.494  14297.480  0.500  0.501036  33.839616  20.503522  4.598086
  14301.507  14301.480  0.500  0.500434  33.814014  20.500340  4.604433
  14305.513  14305.490  0.500  0.499594  33.797309  20.507435  4.612030
  14309.557  14309.530  0.500  0.498629  33.749843  20.498401  4.616458
  14313.604  14313.580  0.500  0.497993  33.737264  20.503795  4.627055
  14317.662  14317.650  0.500  0.497204  33.707669  20.501986  4.634277
  14321.785  14321.740  0.500  0.496328  33.665182  20.494080  4.640531
  14325.848  14325.850  0.500  0.495656  33.640718  20.492957  4.647081
  14330.020  14329.980  0.500  0.494700  33.615431  20.497138  4.653661
  14334.160  14334.130  0.500  0.493904  33.589684  20.497738  4.657189
  14338.301  14338.290  0.500  0.493004  33.544509  20.488618  4.657494
  14342.499  14342.480  0.500  0.492055  33.518920  20.492422  4.661018
  14346.718  14346.680  0.500  0.491276  33.494419  20.493397  4.663346
  14350.939  14350.910  0.500  0.490469  33.472165  20.496323  4.668431
  14355.171  14355.150  0.500  0.489446  33.428527  20.490548  4.671057
  14359.434  14359.410  0.500  0.488635  33.306910  20.432571  4.663092
  14363.716  14363.690  0.500  0.487634  33.378354  20.496905  4.683333
  14368.001  14367.990  0.500  0.486780  33.282426  20.455443  4.678145
  14372.334  14372.310  0.500  0.485842  33.304686  20.488349  4.691778
  14376.679  14376.650  0.500  0.485075  33.217527  20.450408  4.689161
  14381.017  14381.010  0.500  0.484141  33.241217  20.484105  4.702453
  14385.422  14385.390  0.500  0.483245  33.167623  20.457076  4.702456
  14389.802  14389.780  0.500  0.482287  33.171477  20.479075  4.713916
  14394.211  14394.200  0.500  0.481545  33.150106  20.481060  4.721456
  14398.669  14398.630  0.500  0.480614  33.117362  20.479887  4.728564
  14403.093  14403.080  0.500  0.479758  33.078028  20.473088  4.733743
  14407.584  14407.550  0.500  0.478815  33.036677  20.466787  4.738425
  14412.086  14412.040  0.500  0.477842  32.855809  20.374551  4.725116
  14416.582  14416.550  0.500  0.477204  32.982990  20.466470  4.752446
  14421.118  14421.080  0.500  0.476175  32.932996  20.456478  4.754767
  14425.665  14425.630  0.500  0.475494  32.909588  20.455873  4.760586
  14430.215  14430.200  0.500  0.474552  32.882954  20.458587  4.766579
  14434.796  14434.780  0.500  0.473771  32.728963  20.378687  4.752978
  14439.425  14439.390  0.500  0.472797  32.834263  20.464170  4.776691
  14444.002  14444.010  0.500  0.472031  32.771002  20.440395  4.776237
  14448.701  14448.660  0.500  0.471058  32.759528  20.453120  4.781238
  14453.339  14453.320  0.500  0.470223  32.736661  20.455916  4.786089
  14458.016  14458.000  0.500  0.469488  32.691611  20.442800  4.787517
  14462.724  14462.700  0.500  0.468567  32.658111  20.440658  4.792398
  14467.445  14467.420  0.500  0.467483  32.622920  20.440776  4.796388
  14472.168  14472.160  0.500  0.466697  32.588429  20.435225  4.798632
  14476.950  14476.910  0.500  0.465889  32.563450  20.436062  4.804457
  14481.698  14481.690  0.500  0.464853  32.483587  20.407074  4.803304
  14486.541  14486.490  0.500  0.463998  32.490545  20.428904  4.815466
  14491.332  14491.300  0.500  0.463058  32.463343  20.430995  4.821999
  14496.181  14496.130  0.500  0.462051  32.422074  20.425584  4.828244
  14501.043  14500.990  0.500  0.461079  32.388919  20.424539  4.835161
  14505.899  14505.860  0.500  0.460254  32.346592  20.414688  4.839698
  14510.777  14510.750  0.500  0.459138  32.322834  20.422470  4.849314
  14515.713  14515.660  0.500  0.458249  32.275615  20.410786  4.855780
  14520.607  14520.590  0.500  0.457510  32.255978  20.413434  4.864823
  14525.559  14525.530  0.500  0.456368  32.228589  20.419414  4.874335
  14530.542  14530.500  0.500  0.455471  32.182751  20.408663  4.877748
  14535.501  14535.490  0.500  0.454578  32.145099  20.403007  4.883995
  14540.538  14540.490  0.500  0.453404  32.114996  20.407843  4.890591
  14545.541  14545.520  0.500  0.452539  32.094413  20.412413  4.897848
  14550.594  14550.560  0.500  0.451613  32.008109  20.376375  4.894759
  14555.659  14555.620  0.500  0.450467  32.015912  20.404717  4.907013
  14560.710  14560.700  0.500  0.449717  31.975016  20.393932  4.911893
  14565.829  14565.800  0.500  0.448550  31.935705  20.392644  4.916627
  14570.961  14570.920  0.500  0.447721  31.900880  20.387305  4.922709
  14576.087  14576.060  0.500  0.446827  31.859357  20.378973  4.925581
  14581.264  14581.220  0.500  0.445662  31.837768  20.388915  4.932489
  14586.444  14586.400  0.500  0.444706  31.793895  20.380293  4.934211
  14591.628  14591.590  0.500  0.443730  31.756194  20.376007  4.938137
  14596.880  14596.810  0.500  0.442735  31.713141  20.368625  4.939677
  14602.081  14602.040  0.500  0.441900  31.677432  20.362698  4.941558
  14607.351  14607.290  0.500  0.440761  31.647647  20.366729  4.948549
  14612.606  14612.560  0.500  0.439867  31.604165  20.356945  4.954224
  14617.893  14617.850  0.500  0.438956  31.555533  20.344146  4.956894
  14623.211  14623.160  0.500  0.437964  31.537025  20.352388  4.967370
  14628.515  14628.490  0.500  0.436970  31.511200  20.355946  4.976213
  14633.879  14633.840  0.500  0.435913  31.560207  20.409173  4.995917
  14639.238  14639.210  0.500  0.434983  31.519343  20.401710  5.004181
  14644.610  14644.590  0.500  0.433918  31.425666  20.362751  5.002558
  14650.023  14650.000  0.500  0.433060  31.443528  20.391802  5.018538
  14655.450  14655.420  0.500  0.432112  31.404179  20.385601  5.024535
  14660.900  14660.870  0.500  0.430894  31.326072  20.359694  5.024681
  14666.382  14666.330  0.500  0.429978  31.298689  20.360528  5.030976
  14671.868  14671.810  0.500  0.428993  31.295761  20.378680  5.042945
  14677.339  14677.310  0.500  0.428077  31.258240  20.372905  5.048266
  14682.862  14682.830  0.500  0.427023  31.212580  20.364594  5.052398
  14688.399  14688.370  0.500  0.425945  31.153147  20.347753  5.055615
  14693.939  14693.920  0.500  0.424839  31.138857  20.360927  5.064285
  14699.541  14699.500  0.500  0.423921  31.103227  20.356312  5.070570
  14705.118  14705.100  0.500  0.422734  31.052994  20.347561  5.075128
  14710.738  14710.710  0.500  0.421790  31.033469  20.353973  5.082760
  14716.380  14716.350  0.500  0.420892  30.994076  20.346399  5.087492
  14722.037  14722.000  0.500  0.419799  30.952456  20.341304  5.092474
  14727.689  14727.670  0.500  0.418752  30.913618  20.337051  5.098569
  14733.383  14733.360  0.500  0.417640  30.875025  20.334269  5.102832
