# XDI/1.0 BlueSky/1.10.0 BMM/2023-1.0-py310-tiled
# Beamline.name: BMM (06BM) -- Beamline for Materials Measurement (NIST)
# Beamline.xray_source: NSLS-II three-pole wiggler
# Beamline.collimation: paraboloid mirror, 5 nm Rh on 30 nm Pt
# Beamline.focusing: not in use
# Beamline.harmonic_rejection: flat mirror, Pt stripe, pitch = 7.0 mrad relative to beam
# Beamline.software: Bluesky 1.10.0, Ophyd 1.7.0, DataBroker 2.0.0b13, Python 3.10.8, 2023-1.0-py310-tiled
# Detector.I0: 10 cm N2
# Detector.I1: 25 cm N2
# Detector.I2: 25 cm N2
# Element.symbol: Pt
# Element.edge: L3
# Element.reference: Pt
# Element.reference_material: Pt foil
# Facility.name: NSLS-II
# Facility.energy: 3.0
# Facility.current: 400.8
# Facility.mode: top-off
# Facility.GUP: 301027
# Facility.SAF: 310583
# Facility.cycle: 2023-2
# Mono.name: Si(111)
# Mono.d_spacing: 3.1351860
# Mono.encoder_resolution: 0.0000050 deg/ct
# Mono.angle_offset: 16.0754326 deg
# Mono.scan_mode: pseudo channel cut
# Mono.scan_type: step
# Mono.direction: forward in energy
# Sample.name: Pt foil
# Sample.prep: reference foil
# Sample.x: 109.138 mm
# Sample.y: 153.150 mm
# Sample.SDD_position: 205.000 mm
# Scan.experimenters: Bruce Ravel
# Scan.edge_energy: 11563.8
# Scan.start_time: 2023-05-28T18:57:11
# Scan.end_time: 2023-05-28T19:05:02
# Scan.transient_id: 78931
# Scan.uid: 7087ce09-c0ca-42b1-b29a-ad5783c3b504
# Scan.plot_hint: ln(It/Ir)  --  ln($6/$7)
# Column.1: energy eV
# Column.2: requested_energy eV
# Column.3: measurement_time seconds
# Column.4: xmu 
# Column.5: I0 nA
# Column.6: It nA
# Column.7: Ir nA
# ///////////
# standard reference foil
# -----------
# energy  requested_energy  measurement_time  xmu  I0  It  Ir
  11363.744  11363.800  0.500  0.940809  70.624509  116.963212  45.652145
  11373.878  11373.800  0.500  0.938477  70.140372  116.217924  45.467172
  11383.889  11383.800  0.500  0.936013  70.176248  116.316608  45.618031
  11393.862  11393.800  0.500  0.933769  68.024199  112.807921  44.341362
  11403.841  11403.800  0.500  0.931643  69.898171  115.972575  45.682296
  11413.872  11413.800  0.500  0.929390  69.677070  115.649155  45.657633
  11423.774  11423.800  0.500  0.927037  69.537057  115.451758  45.687092
  11433.789  11433.800  0.500  0.924897  69.365193  115.216148  45.691538
  11443.806  11443.800  0.500  0.922674  69.210974  115.007453  45.710256
  11453.823  11453.800  0.500  0.920570  69.052811  114.792216  45.720819
  11463.840  11463.800  0.500  0.918387  68.872085  114.538176  45.719312
  11473.824  11473.800  0.500  0.916497  68.727448  114.345075  45.728580
  11483.820  11483.800  0.500  0.914623  68.639633  114.241031  45.772693
  11493.846  11493.800  0.500  0.913102  68.464870  114.010839  45.750006
  11503.819  11503.800  0.500  0.911880  68.317432  113.804309  45.722942
  11513.845  11513.800  0.500  0.911270  68.153715  113.582900  45.661856
  11523.791  11523.800  0.500  0.911977  67.968372  113.327841  45.527121
  11533.835  11533.800  0.500  0.915338  67.979850  113.402815  45.404369
  11535.808  11535.800  0.500  0.916587  67.958316  113.363839  45.332090
  11537.787  11537.800  0.500  0.918195  67.939253  113.351340  45.254293
  11539.761  11539.800  0.500  0.920148  67.883545  113.264001  45.131200
  11541.765  11541.800  0.500  0.922691  67.851671  113.225044  45.001056
  11543.764  11543.800  0.500  0.925957  67.811381  113.175564  44.834740
  11545.769  11545.800  0.500  0.930037  67.745617  113.057551  44.605634
  11547.769  11547.800  0.500  0.935469  67.705759  112.999351  44.341136
  11549.764  11549.800  0.500  0.942836  67.662258  112.925132  43.986779
  11551.765  11551.800  0.500  0.953305  67.601606  112.849148  43.499393
  11553.762  11553.800  0.500  0.967693  67.563337  112.795085  42.857445
  11554.041  11554.100  0.500  0.970301  67.534492  112.730609  42.721418
  11554.342  11554.400  0.500  0.973263  67.519357  112.718582  42.590515
  11554.650  11554.700  0.500  0.976461  67.513657  112.708464  42.450699
  11554.940  11555.000  0.500  0.979868  67.497195  112.687514  42.298470
  11555.248  11555.300  0.500  0.983483  67.489356  112.670343  42.139394
  11555.550  11555.600  0.500  0.987514  67.483006  112.677488  41.972540
  11555.852  11555.900  0.500  0.991774  67.458454  112.639239  41.779952
  11556.154  11556.200  0.500  0.996326  67.457536  112.607455  41.578457
  11556.467  11556.500  0.500  1.001528  67.429978  112.565801  41.347432
  11556.775  11556.800  0.500  1.007245  67.401350  112.526530  41.097355
  11557.071  11557.100  0.500  1.012940  67.386280  112.511205  40.858422
  11557.373  11557.400  0.500  1.019195  67.364328  112.483845  40.593774
  11557.675  11557.700  0.500  1.026254  67.352720  112.469171  40.302965
  11557.972  11558.000  0.500  1.033571  67.332034  112.433144  39.996326
  11558.268  11558.300  0.500  1.041703  67.313938  112.408320  39.663660
  11558.582  11558.600  0.500  1.050810  67.287661  112.360320  39.287281
  11558.890  11558.900  0.500  1.060884  67.244066  112.273453  38.863428
  11559.186  11559.200  0.500  1.071245  67.224666  112.247240  38.453872
  11559.476  11559.500  0.500  1.083153  67.195868  112.199748  37.982587
  11559.784  11559.800  0.500  1.096836  67.163338  112.140293  37.446557
  11560.081  11560.100  0.500  1.111323  67.140679  112.104992  36.896347
  11560.371  11560.400  0.500  1.127531  67.092640  112.032678  36.279758
  11560.691  11560.700  0.500  1.147283  67.058880  111.973834  35.551502
  11560.993  11561.000  0.500  1.169137  67.002587  111.888901  34.756614
  11561.290  11561.300  0.500  1.192572  66.948340  111.795543  33.923208
  11561.586  11561.600  0.500  1.219671  66.880715  111.687394  32.984341
  11561.894  11561.900  0.500  1.250876  66.815358  111.572935  31.938182
  11562.179  11562.200  0.500  1.284261  66.754726  111.470243  30.861115
  11562.487  11562.500  0.500  1.323595  66.664168  111.322782  29.631527
  11562.795  11562.800  0.500  1.368572  66.596531  111.211060  28.299893
  11563.086  11563.100  0.500  1.416151  66.499837  111.060333  26.948364
  11563.376  11563.400  0.500  1.466367  66.419588  110.932497  25.599032
  11563.690  11563.700  0.500  1.524126  66.295119  110.717492  24.115514
  11563.987  11564.000  0.500  1.584699  66.190167  110.540881  22.661934
  11564.272  11564.300  0.500  1.643517  66.093817  110.393158  21.338897
  11564.574  11564.600  0.500  1.706076  65.993049  110.223001  20.013957
  11564.888  11564.900  0.500  1.769445  65.906541  110.071946  18.759297
  11565.185  11565.200  0.500  1.825169  65.837158  109.967040  17.725630
  11565.487  11565.500  0.500  1.875295  65.783771  109.874839  16.844885
  11565.778  11565.800  0.500  1.919316  65.738961  109.805004  16.109192
  11566.087  11566.100  0.500  1.953345  65.712987  109.758570  15.563649
  11566.372  11566.400  0.500  1.976380  65.680113  109.710439  15.202572
  11566.686  11566.700  0.500  1.990271  65.683278  109.713942  14.993333
  11567.006  11567.000  0.500  1.994048  65.729405  109.792136  14.947455
  11567.285  11567.300  0.500  1.990116  65.727070  109.791599  15.006270
  11567.588  11567.600  0.500  1.979863  65.748662  109.828602  15.166032
  11567.890  11567.900  0.500  1.965791  65.806378  109.928339  15.394924
  11568.193  11568.200  0.500  1.948622  65.816201  109.945070  15.663905
  11568.490  11568.500  0.500  1.930289  65.857051  110.012877  15.963559
  11568.798  11568.800  0.500  1.910800  65.889779  110.078921  16.287494
  11569.106  11569.100  0.500  1.892384  65.948750  110.170665  16.604056
  11569.403  11569.400  0.500  1.874625  65.977324  110.218069  16.908823
  11569.694  11569.700  0.500  1.858063  65.972159  110.204712  17.189127
  11570.014  11570.000  0.500  1.842513  66.008808  110.276520  17.469871
  11570.294  11570.300  0.500  1.829413  66.016369  110.284514  17.701526
  11570.591  11570.600  0.500  1.816462  66.035278  110.322473  17.938442
  11570.911  11570.900  0.500  1.803973  66.036394  110.327307  18.164675
  11571.202  11571.200  0.500  1.794060  66.054078  110.359279  18.350950
  11571.505  11571.500  0.500  1.784801  66.081386  110.405724  18.529435
  11571.808  11571.800  0.500  1.775687  66.079237  110.397680  18.697725
  11572.110  11572.100  0.500  1.767557  66.082556  110.414442  18.853220
  11572.407  11572.400  0.500  1.759897  66.093606  110.427678  19.000473
  11572.704  11572.700  0.500  1.752664  66.096399  110.440382  19.140608
  11573.013  11573.000  0.500  1.745645  66.106428  110.455941  19.278148
  11573.299  11573.300  0.500  1.739439  66.110437  110.465760  19.399869
  11573.607  11573.600  0.500  1.733554  66.121658  110.480961  19.517074
  11573.898  11573.900  0.500  1.728121  66.116848  110.470000  19.621433
  11574.190  11574.200  0.500  1.723377  66.125580  110.486238  19.717641
  11574.493  11574.500  0.500  1.719200  66.117278  110.476957  19.798517
  11574.801  11574.800  0.500  1.715642  66.114037  110.470311  19.867880
  11575.099  11575.100  0.500  1.713134  66.105028  110.449164  19.913976
  11575.396  11575.400  0.500  1.711214  66.116928  110.471664  19.956308
  11575.687  11575.700  0.500  1.710158  66.099520  110.451486  19.973744
  11575.996  11576.000  0.500  1.709740  66.092770  110.442088  19.980391
  11576.299  11576.300  0.500  1.710162  66.089561  110.430920  19.969931
  11576.590  11576.600  0.500  1.710993  66.079607  110.424374  19.952176
  11576.899  11576.900  0.500  1.712747  66.077536  110.419635  19.916355
  11577.191  11577.200  0.500  1.714859  66.066754  110.410451  19.872672
  11577.494  11577.500  0.500  1.717497  66.077018  110.416384  19.821380
  11577.785  11577.800  0.500  1.720575  66.041227  110.356330  19.749727
  11578.082  11578.100  0.500  1.724327  66.031543  110.349243  19.674506
  11578.386  11578.400  0.500  1.727901  66.006046  110.307321  19.596853
  11578.695  11578.700  0.500  1.731790  65.998339  110.293553  19.518367
  11579.015  11579.000  0.500  1.735973  66.011111  110.316331  19.440891
  11579.289  11579.300  0.500  1.739280  65.994360  110.285234  19.371245
  11579.587  11579.600  0.500  1.742770  65.980393  110.270172  19.301129
  11579.901  11579.900  0.500  1.745681  65.984879  110.271035  19.245172
  11580.205  11580.200  0.500  1.748063  65.957529  110.224098  19.191214
  11580.502  11580.500  0.500  1.749603  65.954196  110.220912  19.161120
  11580.811  11580.800  0.500  1.750465  65.958862  110.238967  19.147749
  11581.109  11581.100  0.500  1.750300  65.947153  110.224331  19.148369
  11581.406  11581.400  0.500  1.749423  65.937312  110.205929  19.161979
  11581.704  11581.700  0.500  1.747750  65.950323  110.220991  19.196678
  11582.007  11582.000  0.500  1.745070  65.961570  110.252095  19.253636
  11582.304  11582.300  0.500  1.741910  65.939335  110.211919  19.307537
  11582.584  11582.600  0.500  1.738159  65.960616  110.248255  19.386469
  11582.911  11582.900  0.500  1.733461  65.945662  110.232825  19.475040
  11583.215  11583.200  0.500  1.728845  65.945669  110.237901  19.566040
  11583.495  11583.500  0.500  1.724220  65.946840  110.236902  19.656580
  11583.798  11583.800  0.500  1.719476  65.972766  110.285098  19.758682
  11584.113  11584.100  0.500  1.715073  66.137533  110.560317  19.895401
  11584.405  11584.400  0.500  1.711238  66.174184  110.606682  19.980223
  11584.697  11584.700  0.500  1.707987  66.182517  110.626752  20.048906
  11585.012  11585.000  0.500  1.705253  66.186647  110.640462  20.106302
  11585.304  11585.300  0.500  1.703212  66.192641  110.651795  20.149444
  11585.584  11585.600  0.500  1.701856  66.193223  110.647151  20.175923
  11585.893  11585.900  0.500  1.700627  66.172614  110.616123  20.195079
  11586.197  11586.200  0.500  1.700084  66.169230  110.622453  20.207200
  11586.489  11586.500  0.500  1.699726  66.176262  110.629586  20.215732
  11586.786  11586.800  0.500  1.699712  66.172026  110.620816  20.214429
  11587.108  11587.100  0.500  1.699881  66.165781  110.599015  20.207028
  11587.388  11587.400  0.500  1.700154  66.166569  110.609301  20.203389
  11587.691  11587.700  0.500  1.700598  66.164337  110.609003  20.194366
  11588.001  11588.000  0.500  1.701365  66.150742  110.581164  20.173799
  11588.281  11588.300  0.500  1.702345  66.142975  110.581226  20.154042
  11588.573  11588.600  0.500  1.703614  66.127718  110.555844  20.123863
  11588.778  11588.800  0.500  1.704568  66.145261  110.587369  20.110410
  11589.800  11589.790  0.500  1.713047  66.106542  110.520118  19.928503
  11590.793  11590.790  0.500  1.726946  66.069795  110.468317  19.644209
  11591.821  11591.810  0.500  1.746066  66.046148  110.431402  19.265746
  11592.879  11592.860  0.500  1.766853  65.987244  110.351860  18.855809
  11593.943  11593.920  0.500  1.782921  65.955540  110.295144  18.545716
  11595.018  11595.000  0.500  1.789722  65.947778  110.276268  18.416867
  11596.118  11596.100  0.500  1.785454  65.945520  110.285871  18.497240
  11597.246  11597.220  0.500  1.773243  65.940086  110.285061  18.724360
  11598.370  11598.360  0.500  1.758570  65.949884  110.298307  19.003422
  11599.516  11599.510  0.500  1.745381  65.954001  110.315390  19.258690
  11600.698  11600.690  0.500  1.735321  65.944231  110.295674  19.449931
  11601.892  11601.880  0.500  1.729375  65.957356  110.327373  19.571560
  11603.116  11603.100  0.500  1.725638  65.924275  110.276631  19.635801
  11604.352  11604.330  0.500  1.721220  65.917927  110.268765  19.721338
  11605.611  11605.580  0.500  1.714869  65.900148  110.253734  19.844279
  11606.864  11606.850  0.500  1.708119  65.900597  110.255276  19.978953
  11608.153  11608.140  0.500  1.703487  65.893394  110.248996  20.070564
  11609.466  11609.450  0.500  1.703590  65.847742  110.177618  20.055517
  11610.768  11610.780  0.500  1.708469  65.841134  110.174398  19.957302
  11612.128  11612.130  0.500  1.716836  65.805634  110.126287  19.782376
  11613.506  11613.500  0.500  1.727352  65.752613  110.029786  19.558291
  11614.908  11614.880  0.500  1.738788  65.729710  110.008251  19.332115
  11616.287  11616.290  0.500  1.750400  65.677166  109.923389  19.094173
  11617.713  11617.710  0.500  1.760715  65.652017  109.887522  18.892071
  11619.152  11619.150  0.500  1.768506  65.620568  109.845517  18.738282
  11620.626  11620.610  0.500  1.771911  65.615217  109.845159  18.674536
  11622.112  11622.090  0.500  1.770740  65.589516  109.808605  18.690186
  11623.616  11623.590  0.500  1.766207  65.572078  109.772862  18.769004
  11625.120  11625.110  0.500  1.760826  65.570988  109.780983  18.871669
  11626.649  11626.650  0.500  1.755392  65.570475  109.781637  18.974595
  11628.201  11628.210  0.500  1.750164  65.551291  109.759100  19.070153
  11629.795  11629.780  0.500  1.745103  65.537510  109.742852  19.164073
  11631.401  11631.380  0.500  1.740897  65.505647  109.706125  19.238395
  11633.013  11632.990  0.500  1.737568  65.486519  109.682133  19.298326
  11634.638  11634.630  0.500  1.734610  65.461861  109.651680  19.350131
  11636.281  11636.280  0.500  1.730480  65.450909  109.630034  19.426375
  11637.948  11637.950  0.500  1.724547  65.432486  109.610397  19.538459
  11639.662  11639.640  0.500  1.717253  65.426687  109.608383  19.681148
  11641.371  11641.350  0.500  1.709656  65.412733  109.586580  19.827277
  11643.098  11643.080  0.500  1.702823  65.395265  109.571088  19.960396
  11644.838  11644.830  0.500  1.697752  65.381655  109.555718  20.059069
  11646.602  11646.590  0.500  1.694243  65.351700  109.508845  20.120973
  11648.384  11648.380  0.500  1.692005  65.329621  109.486757  20.161985
  11650.184  11650.180  0.500  1.691202  65.247807  109.354559  20.153811
  11652.020  11652.010  0.500  1.692660  65.102517  109.110491  20.079542
  11653.869  11653.850  0.500  1.696917  65.211023  109.304182  20.029737
  11655.724  11655.710  0.500  1.703454  65.180727  109.261992  19.891549
  11657.603  11657.590  0.500  1.711187  65.140849  109.212002  19.729278
  11659.507  11659.490  0.500  1.718158  65.040082  109.036362  19.560712
  11661.429  11661.410  0.500  1.723737  64.983662  108.950579  19.436594
  11663.345  11663.350  0.500  1.726826  65.057402  109.080337  19.399715
  11665.310  11665.310  0.500  1.728087  65.026694  109.043000  19.368649
  11667.282  11667.280  0.500  1.727383  64.955444  108.933908  19.362897
  11669.307  11669.280  0.500  1.725816  64.858077  108.778595  19.365612
  11671.309  11671.290  0.500  1.723943  64.954904  108.943570  19.431340
  11673.324  11673.320  0.500  1.721924  64.934531  108.911841  19.464944
  11675.393  11675.380  0.500  1.719745  64.891523  108.859595  19.498038
  11677.463  11677.450  0.500  1.718057  64.803653  108.726577  19.507105
  11679.575  11679.540  0.500  1.717240  64.730954  108.609266  19.501986
  11681.664  11681.650  0.500  1.717977  64.799066  108.724490  19.508304
  11683.777  11683.780  0.500  1.719870  64.777546  108.691196  19.465447
  11685.921  11685.920  0.500  1.722357  64.737269  108.645256  19.408881
  11688.113  11688.090  0.500  1.724357  64.712668  108.613457  19.364448
  11690.306  11690.280  0.500  1.724677  64.687222  108.569818  19.350475
  11692.471  11692.480  0.500  1.722920  64.653318  108.535443  19.378354
  11694.713  11694.700  0.500  1.719105  64.633594  108.513439  19.448480
  11696.968  11696.950  0.500  1.713123  64.603427  108.473448  19.557961
  11699.212  11699.210  0.500  1.705770  64.573117  108.427344  19.693925
  11701.505  11701.490  0.500  1.697677  64.473281  108.274475  19.825962
  11703.799  11703.790  0.500  1.690105  64.218321  107.856809  19.899606
  11706.135  11706.110  0.500  1.684575  64.482412  108.306246  20.093337
  11708.460  11708.450  0.500  1.681828  64.466991  108.292601  20.146059
  11710.786  11710.800  0.500  1.681626  64.418347  108.220257  20.136680
  11713.185  11713.180  0.500  1.683605  64.381059  108.167474  20.087063
  11715.579  11715.570  0.500  1.687003  64.359130  108.131630  20.012290
  11718.021  11717.990  0.500  1.691349  64.329579  108.089163  19.917666
  11720.417  11720.420  0.500  1.695611  64.276802  108.010200  19.818474
  11722.904  11722.870  0.500  1.699547  64.237202  107.958192  19.731115
  11725.397  11725.350  0.500  1.702573  64.198633  107.908425  19.662429
  11727.856  11727.840  0.500  1.704964  64.178373  107.889214  19.611988
  11730.363  11730.350  0.500  1.706876  64.128179  107.812193  19.560559
  11732.890  11732.870  0.500  1.708453  64.098015  107.761493  19.520549
  11735.424  11735.420  0.500  1.708740  63.813736  107.298465  19.431089
  11737.994  11737.990  0.500  1.708159  63.987742  107.607552  19.498380
  11740.560  11740.570  0.500  1.706684  63.969985  107.580894  19.522338
  11743.200  11743.180  0.500  1.705502  63.941423  107.551047  19.540005
  11745.816  11745.800  0.500  1.705213  63.736670  107.212925  19.484196
  11748.451  11748.450  0.500  1.706733  63.808364  107.341878  19.478004
  11751.118  11751.110  0.500  1.709320  63.830135  107.391602  19.436684
  11753.816  11753.790  0.500  1.711705  63.788616  107.332915  19.379783
  11756.479  11756.490  0.500  1.712512  63.607316  107.048959  19.312919
  11759.234  11759.210  0.500  1.709769  63.674389  107.168315  19.387562
  11761.972  11761.950  0.500  1.703384  63.675314  107.179096  19.513709
  11764.693  11764.700  0.500  1.695171  63.655653  107.156349  19.670465
  11767.500  11767.480  0.500  1.687427  63.614570  107.095980  19.812205
  11770.290  11770.270  0.500  1.681626  63.329861  106.629237  19.840634
  11773.099  11773.090  0.500  1.677648  63.537820  106.987591  19.986657
  11775.928  11775.920  0.500  1.675089  63.385132  106.745715  19.992557
  11778.795  11778.770  0.500  1.673045  63.370983  106.726841  20.029927
  11781.650  11781.650  0.500  1.671697  63.415014  106.815920  20.073691
  11784.556  11784.540  0.500  1.670954  63.375764  106.772439  20.080423
  11787.475  11787.450  0.500  1.670594  63.343838  106.717699  20.077369
  11790.378  11790.370  0.500  1.670536  63.304229  106.662913  20.068211
  11793.324  11793.320  0.500  1.670972  63.262361  106.611645  20.049841
  11796.314  11796.290  0.500  1.672443  63.218997  106.549430  20.008686
  11799.269  11799.270  0.500  1.674843  63.195613  106.520024  19.955214
  11802.305  11802.280  0.500  1.678635  63.131815  106.422594  19.861498
  11805.318  11805.300  0.500  1.683583  62.750606  105.795526  19.647005
  11808.357  11808.350  0.500  1.688722  63.017884  106.258578  19.631848
  11811.434  11811.410  0.500  1.693411  62.984584  106.207671  19.530660
  11814.518  11814.490  0.500  1.696368  62.933982  106.137282  19.460081
  11817.598  11817.590  0.500  1.697021  62.894514  106.079257  19.436747
  11820.729  11820.710  0.500  1.695432  62.841498  105.997843  19.452726
  11823.861  11823.850  0.500  1.692197  62.797276  105.935553  19.504284
  11827.013  11827.000  0.500  1.687424  62.749584  105.870953  19.585655
  11830.215  11830.180  0.500  1.681153  62.415318  105.323832  19.606992
  11833.383  11833.370  0.500  1.673980  62.669728  105.766266  19.831095
  11836.619  11836.590  0.500  1.666303  62.653407  105.753596  19.981546
  11839.827  11839.820  0.500  1.660371  62.598672  105.671445  20.084810
  11843.079  11843.070  0.500  1.656624  62.563539  105.628729  20.152053
  11846.375  11846.350  0.500  1.654936  62.511968  105.552302  20.171500
  11849.643  11849.640  0.500  1.654907  62.433292  105.432119  20.149122
  11852.981  11852.950  0.500  1.656027  62.416245  105.412868  20.122881
  11856.264  11856.270  0.500  1.657291  62.231617  105.111415  20.039992
  11859.654  11859.620  0.500  1.657053  61.984819  104.711839  19.968567
  11863.028  11862.990  0.500  1.654851  62.108811  104.941633  20.056501
  11866.373  11866.370  0.500  1.652050  62.249742  105.190747  20.160497
  11869.817  11869.780  0.500  1.650329  62.095590  104.956092  20.150185
  11873.209  11873.200  0.500  1.650311  62.130248  105.016101  20.162062
  11876.682  11876.650  0.500  1.652205  62.095234  104.972631  20.115574
  11880.102  11880.110  0.500  1.654916  62.032625  104.873845  20.042248
  11883.604  11883.590  0.500  1.657765  61.838308  104.563511  19.926075
  11887.102  11887.090  0.500  1.660511  61.824610  104.544942  19.867922
  11890.615  11890.610  0.500  1.663135  61.859784  104.621971  19.830452
  11894.160  11894.150  0.500  1.664984  61.807099  104.538127  19.777952
  11897.701  11897.700  0.500  1.665015  61.747638  104.454387  19.761500
  11901.294  11901.280  0.500  1.663242  61.147489  103.450754  19.606364
  11904.901  11904.880  0.500  1.659152  61.661656  104.337584  19.855471
  11908.498  11908.490  0.500  1.653363  61.621185  104.279031  19.959542
  11912.147  11912.120  0.500  1.646721  61.562446  104.198930  20.077110
  11915.786  11915.780  0.500  1.640658  61.275604  103.725034  20.107346
  11919.464  11919.450  0.500  1.636365  61.443848  104.019370  20.251170
  11923.169  11923.140  0.500  1.633943  61.444649  104.037542  20.303814
  11926.851  11926.850  0.500  1.633005  61.396985  103.958265  20.307378
  11930.604  11930.580  0.500  1.633194  61.335126  103.866005  20.285518
  11934.310  11934.320  0.500  1.633340  60.671272  102.758011  20.066207
  11938.111  11938.090  0.500  1.633584  61.191084  103.661363  20.237656
  11941.890  11941.880  0.500  1.633380  61.161512  103.625702  20.234833
  11945.690  11945.680  0.500  1.632846  61.291846  103.850753  20.289611
  11949.536  11949.510  0.500  1.631144  61.252726  103.802166  20.314653
  11953.360  11953.350  0.500  1.628531  61.205856  103.744993  20.356596
  11957.235  11957.210  0.500  1.626488  61.158126  103.681280  20.385707
  11961.095  11961.090  0.500  1.625827  61.103060  103.598845  20.382957
  11965.020  11964.990  0.500  1.626701  61.047200  103.514735  20.348618
  11968.922  11968.910  0.500  1.628548  60.993865  103.438955  20.296200
  11972.876  11972.850  0.500  1.629832  60.937597  103.355975  20.253901
  11976.815  11976.810  0.500  1.630192  60.880597  103.275617  20.230869
  11980.800  11980.780  0.500  1.629984  60.820478  103.188635  20.218032
  11984.794  11984.780  0.500  1.629342  60.765502  103.106058  20.214816
  11988.803  11988.790  0.500  1.629211  60.709537  103.028124  20.202197
  11992.840  11992.830  0.500  1.628522  60.663672  102.960412  20.202824
  11996.904  11996.880  0.500  1.626828  60.601246  102.874839  20.220253
  12000.966  12000.950  0.500  1.624108  60.555521  102.814346  20.263405
  12005.074  12005.040  0.500  1.619712  60.496966  102.723816  20.334769
  12009.172  12009.150  0.500  1.614383  60.440485  102.649359  20.428601
  12013.317  12013.280  0.500  1.608711  60.390673  102.579554  20.530832
  12017.446  12017.430  0.500  1.603561  60.341114  102.503538  20.621545
  12021.603  12021.590  0.500  1.600124  60.282549  102.421094  20.675899
  12025.807  12025.780  0.500  1.598467  60.222401  102.339226  20.693633
  12029.995  12029.980  0.500  1.597830  60.171140  102.271419  20.693091
  12034.250  12034.210  0.500  1.597968  60.102869  102.161352  20.667981
  12038.463  12038.450  0.500  1.598521  60.048575  102.082959  20.640703
  12042.736  12042.710  0.500  1.598824  59.975046  101.965562  20.610712
  12047.005  12046.990  0.500  1.599011  58.525005  99.520464  20.112726
  12051.310  12051.290  0.500  1.599292  59.782000  101.668283  20.541008
  12055.636  12055.610  0.500  1.599700  59.785794  101.690644  20.537145
  12059.972  12059.950  0.500  1.599788  59.727575  101.612338  20.519523
  12064.343  12064.310  0.500  1.599518  59.678262  101.537666  20.509983
  12068.723  12068.690  0.500  1.598810  59.619551  101.459085  20.508632
  12073.088  12073.080  0.500  1.597828  59.557800  101.377138  20.512199
  12077.538  12077.500  0.500  1.597078  59.493717  101.275028  20.506904
  12081.972  12081.930  0.500  1.596048  59.429734  101.179027  20.508589
  12086.410  12086.380  0.500  1.594231  59.375615  101.097638  20.529344
  12090.877  12090.850  0.500  1.591699  59.216291  100.847160  20.530416
  12095.359  12095.340  0.500  1.588671  59.256021  100.931552  20.609900
  12099.909  12099.850  0.500  1.585480  59.206585  100.856848  20.660462
  12104.399  12104.380  0.500  1.582640  59.138272  100.763075  20.699965
  12108.968  12108.930  0.500  1.579805  59.085360  100.687820  20.743229
  12113.522  12113.500  0.500  1.577369  59.013872  100.575571  20.770645
  12118.111  12118.080  0.500  1.574746  58.948095  100.484931  20.806418
  12122.730  12122.690  0.500  1.571987  58.886710  100.387365  20.843647
  12127.345  12127.310  0.500  1.569276  58.781659  100.229857  20.867432
  12131.984  12131.960  0.500  1.566784  58.780349  100.242522  20.922162
  12136.651  12136.620  0.500  1.565080  58.707058  100.146345  20.937732
  12141.329  12141.300  0.500  1.564008  58.650776  100.046305  20.939254
  12146.042  12146.000  0.500  1.563435  58.572710  99.935382  20.928018
  12150.753  12150.720  0.500  1.563030  58.520830  99.866633  20.922096
  12155.493  12155.460  0.500  1.562445  58.454235  99.761122  20.912214
  12160.237  12160.210  0.500  1.562148  58.365041  99.623122  20.889482
  12165.023  12164.990  0.500  1.562244  58.327022  99.576006  20.877608
  12169.852  12169.790  0.500  1.562092  58.258236  99.465548  20.857623
  12174.627  12174.600  0.500  1.561772  58.191201  99.369974  20.844249
  12179.509  12179.430  0.500  1.561360  58.123497  99.274147  20.832719
  12184.291  12184.290  0.500  1.560709  58.054580  99.173417  20.825146
  12189.187  12189.160  0.500  1.559698  57.983017  99.075983  20.825722
  12194.048  12194.050  0.500  1.558005  57.922708  98.972888  20.839309
  12198.991  12198.960  0.500  1.555920  57.823402  98.827125  20.852044
  12203.919  12203.890  0.500  1.553537  57.802382  98.811636  20.898530
  12208.870  12208.830  0.500  1.550740  57.731880  98.711415  20.935806
  12213.851  12213.800  0.500  1.547532  57.664531  98.596170  20.978549
  12218.810  12218.790  0.500  1.544396  57.595754  98.497559  21.023387
  12223.832  12223.790  0.500  1.541892  57.533023  98.407096  21.056738
  12228.845  12228.820  0.500  1.539695  57.466838  98.321032  21.084596
  12233.888  12233.860  0.500  1.537580  56.803666  97.196196  20.887524
  12238.956  12238.920  0.500  1.535410  57.232401  97.953781  21.096045
  12244.027  12244.000  0.500  1.533371  57.222181  97.950217  21.138348
  12249.142  12249.100  0.500  1.531155  57.162579  97.855436  21.164729
  12254.248  12254.220  0.500  1.528658  57.084811  97.741873  21.193020
  12259.404  12259.360  0.500  1.526122  57.012590  97.637848  21.224216
  12264.551  12264.520  0.500  1.523986  55.593565  95.219226  20.742730
  12269.730  12269.700  0.500  1.522649  56.762467  97.236556  21.210522
  12274.938  12274.890  0.500  1.521830  56.817043  97.345488  21.251690
  12280.132  12280.110  0.500  1.521534  56.741310  97.236458  21.234179
  12285.376  12285.340  0.500  1.521536  56.641030  97.081928  21.200377
  12290.611  12290.590  0.500  1.521668  55.207036  94.625196  20.661155
  12295.911  12295.860  0.500  1.521828  56.481262  96.835531  21.140396
  12301.195  12301.150  0.500  1.521536  56.434030  96.770552  21.132381
  12306.503  12306.460  0.500  1.520792  56.368477  96.672484  21.126680
  12311.836  12311.790  0.500  1.519478  56.291630  96.566640  21.131299
  12317.167  12317.140  0.500  1.517700  56.202705  96.433052  21.139623
  12322.549  12322.510  0.500  1.515153  55.734317  95.634094  21.017948
  12327.916  12327.890  0.500  1.512060  56.044765  96.186437  21.204824
  12333.354  12333.300  0.500  1.508796  55.990355  96.103505  21.255798
  12338.764  12338.720  0.500  1.505510  55.921579  96.005202  21.303941
  12344.218  12344.170  0.500  1.502559  55.852158  95.893671  21.342081
  12349.664  12349.630  0.500  1.500118  55.659840  95.577582  21.323716
  12355.141  12355.110  0.500  1.497832  55.704640  95.670520  21.393306
  12360.637  12360.610  0.500  1.495812  55.642987  95.589927  21.418509
  12366.150  12366.130  0.500  1.494034  55.566324  95.472688  21.430314
  12371.703  12371.670  0.500  1.492033  55.450058  95.294330  21.433119
  12377.253  12377.220  0.500  1.490121  55.426441  95.267768  21.468153
  12382.849  12382.800  0.500  1.488300  55.131404  94.783804  21.398029
  12388.443  12388.400  0.500  1.486346  55.294990  95.068727  21.504334
  12394.069  12394.010  0.500  1.484531  55.214638  94.956800  21.518017
  12399.693  12399.650  0.500  1.483041  55.141909  94.836525  21.522825
  12405.336  12405.300  0.500  1.481576  55.060185  94.716781  21.527163
  12410.998  12410.970  0.500  1.480252  54.979267  94.588886  21.526560
  12416.699  12416.660  0.500  1.478985  54.891456  94.447778  21.521705
